90.19
86.56
82.96
79.61
76.75
74.55
73.09
72.23
71.61
70.73
69.14
66.51
62.73
57.92
52.3
46.18
39.84
33.53
27.37
21.37
15.43
9.41
3.25
-3.04
-9.39
-15.71
-22.06
-28.58
-35.44
-42.75
-50.4
-58.08
-65.37
-71.95
-77.77
-83.14
-88.7
-95.27
-103.53
-113.65
-125.03
-136.24
-145.17
-149.56
-147.51
-138.04
-121.3
-98.5
-71.64
-42.91
-14.36
12.39
36.26
56.56
72.85
84.93
92.78
96.71
97.31
95.5
92.34
88.79
85.55
82.92
80.87
79.18
77.61
76.03
74.4
72.76
71.06
69.14
66.74
63.57
59.43
54.29
48.31
41.78
34.98
28.12
21.3
14.51
7.69
0.82
-6.11
-13.06
-19.98
-26.85
-33.61
-40.23
-46.64
-52.79
-58.71
-64.57
-70.73
-77.65
-85.75
-95.1
-105.2
-114.83
-122.27
-125.56
-123.16
-114.32
-99.32
-79.39
-56.36
-32.16
-8.53
13.26
32.31
48.05
60.09
68.25
72.63
73.63
72
68.7
64.67
60.67
57.16
54.3
52.07
50.32
48.95
47.87
46.98
46.14
45.12
43.63
41.43
38.32
34.27
29.39
23.94
18.22
12.55
7.19
2.24
-2.33
-6.73
-11.26
-16.16
-21.54
-27.29
-33.19
-38.93
-44.27
-49.1
-53.45
-57.49
-61.55
-66.07
-71.48
-77.93
-85.08
-91.9
-96.84
-98.19
-94.61
-85.58
-71.49
-53.51
-33.2
-12.1
8.43
27.29
43.57
56.5
65.54
70.54
71.82
70.17
66.68
62.45
58.31
54.75
51.92
49.83
48.37
47.49
47.08
46.97
46.87
46.42
45.27
43.21
40.19
36.32
31.83
27
22.14
17.5
13.24
9.29
5.41
1.26
-3.5
-9
-15.09
-21.37
-27.38
-32.79
-37.55
-41.96
-46.52
-51.76
-57.98
-65.06
-72.34
-78.68
-82.69
-83.07
-78.97
-70.21
-57.31
-41.31
-23.5
-5.19
12.43
28.36
41.76
52.01
58.76
62.06
62.34
60.35
56.94
52.92
48.91
45.27
42.17
39.65
37.69
36.27
35.3
34.63
34.03
33.18
31.76
29.55
26.43
22.47
17.84
12.79
7.54
2.21
-3.2
-8.79
-14.67
-20.94
-27.57
-34.44
-41.32
-47.96
-54.15
-59.87
-65.35
-71.02
-77.38
-84.74
-93.03
-101.63
-109.39
-114.83
-116.52
-113.4
-105.07
-91.91
-74.92
-55.49
-35.11
-15.15
3.24
19.18
32.2
42.18
49.46
54.76
59.04
63.2
67.93
73.51
79.83
86.3
92.03
95.99
97.3
95.57
91.04
84.62
77.48
70.72
64.94
60.15
55.87
51.45
46.24
39.75
31.7
21.93
10.52
-2.11
-15.08
-27.17
-37.11
-44.09
-48.08
-49.95
-51.19
-53.39
-57.75
-64.79
-74.27
-85.31
-96.63
-106.65
-113.71
-116.36
-113.6
-105.19
-91.74
-74.5
-55.1
-35.13
-15.9
1.62
16.73
28.96
38.12
44.18
47.4
48.26
47.35
45.33
42.84
40.42
38.44
37.1
36.41
36.28
36.51
36.86
37.09
36.91
36.05
34.32
31.64
28.09
23.9
19.38
14.8
10.28
5.81
1.16
-3.9
-9.57
-15.86
-22.54
-29.27
-35.71
-41.67
-47.27
-52.82
-58.76
-65.5
-73.11
-81.24
-89.04
-95.27
-98.55
-97.67
-91.92
-81.23
-66.24
-48.1
-28.19
-7.98
11.24
28.34
42.48
53.11
60.05
63.54
64.15
62.66
59.9
56.62
53.38
50.51
48.2
46.51
45.46
45
45.02
45.3
45.55
45.4
44.52
42.67
39.76
35.87
31.27
26.27
21.15
16.02
10.85
5.45
-0.32
-6.46
-12.86
-19.28
-25.54
-31.61
-37.65
-43.94
-50.77
-58.38
-66.78
-75.68
-84.43
-91.98
-97.07
-98.41
-95.06
-86.67
-73.56
-56.69
-37.42
-17.24
2.44
20.43
35.8
47.95
56.56
61.65
63.52
62.77
60.24
56.81
53.32
50.43
48.44
47.38
47.03
47.1
47.27
47.34
47.13
46.48
45.19
43.05
39.89
35.69
30.61
24.93
19.01
13.06
7.11
1.07
-5.18
-11.69
-18.29
-24.72
-30.76
-36.36
-41.69
-47.12
-53.11
-60.08
-68.14
-77.01
-85.83
-93.27
-97.71
-97.73
-92.45
-81.78
-66.5
-47.92
-27.65
-7.26
11.88
28.7
42.36
52.36
58.59
61.27
61.02
58.63
55.04
51.12
47.63
45.06
43.64
43.24
43.51
43.95
44.13
43.87
43.11
41.93
40.33
38.17
35.26
31.47
26.82
21.51
15.83
10
4.15
-1.69
-7.5
-13.24
-18.88
-24.47
-30.17
-36.31
-43.24
-51.12
-59.71
-68.21
-75.37
-79.69
-79.81
-74.93
-65.02
-50.82
-33.56
-14.73
4.27
22.22
38.13
51.14
60.67
66.36
68.26
66.87
63.04
57.83
52.31
47.33
43.42
40.71
39.02
37.93
37.02
35.9
34.35
32.28
29.67
26.52
22.81
18.51
13.63
8.2
2.35
-3.75
-9.96
-16.15
-22.27
-28.34
-34.46
-40.78
-47.52
-54.93
-63.19
-72.24
-81.65
-90.48
-97.33
-100.67
-99.19
-92.19
-79.84
-63.14
-43.66
-23.1
-3.02
15.37
31.24
44.03
53.41
59.24
61.68
61.19
58.57
54.8
50.84
47.43
45
43.62
43.04
42.88
42.73
42.25
41.27
39.68
37.44
34.51
30.75
26.09
20.47
14.06
7.16
0.23
-6.35
-12.36
-17.86
-23.2
-28.84
-35.25
-42.77
-51.54
-61.41
-71.77
-81.59
-89.41
-93.63
-92.85
-86.32
-74.24
-57.69
-38.33
-18.01
1.69
19.6
34.96
47.25
56.09
61.24
62.75
61.12
57.24
52.35
47.69
44.13
42.05
41.22
41.04
40.84
40.16
38.87
37.15
35.22
33.12
30.62
27.3
22.77
16.9
9.91
2.32
-5.23
-12.22
-18.4
-23.89
-29.14
-34.74
-41.31
-49.26
-58.64
-68.94
-79.08
-87.51
-92.53
-92.7
-87.23
-76.26
-60.77
-42.32
-22.64
-3.29
14.57
30.08
42.69
51.99
57.8
60.19
59.63
56.89
52.91
48.67
44.94
42.14
40.36
39.42
38.97
38.67
38.28
37.65
36.68
35.17
32.84
29.36
24.51
18.39
11.39
4.13
-2.83
-9.14
-14.89
-20.4
-26.17
-32.62
-40.05
-48.6
-58.13
-68.18
-77.82
-85.66
-90.08
-89.61
-83.41
-71.54
-54.94
-35.21
-14.19
6.38
25.04
40.63
52.36
59.81
63.02
62.48
59.11
54.05
48.43
43.15
38.78
35.53
33.34
31.97
31.14
30.52
29.78
28.64
26.83
24.11
20.35
15.54
9.83
3.51
-3.07
-9.67
-16.25
-23.05
-30.5
-39
-48.64
-58.95
-68.77
-76.5
-80.48
-79.39
-72.7
-60.78
-44.72
-26.12
-6.64
12.2
29.11
43.07
53.32
59.38
61.21
59.26
54.45
48.03
41.3
35.29
30.59
27.3
25.15
23.59
22.07
20.13
17.51
14.13
10.12
5.62
0.8
-4.35
-9.89
-16.02
-22.96
-30.87
-39.74
-49.18
-58.37
-66.01
-70.58
-70.66
-65.4
-54.83
-39.88
-22.14
-3.43
14.56
30.49
43.37
52.57
57.71
58.76
56.13
50.68
43.65
36.35
29.85
24.82
21.43
19.47
18.49
18.08
17.89
17.66
17.19
16.2
14.36
11.35
6.9
0.87
-6.74
-15.8
-26.15
-37.4
-48.88
-59.43
-67.46
-71.29
-69.56
-61.77
-48.54
-31.46
-12.61
5.97
22.67
36.5
46.91
53.63
56.56
55.81
51.89
45.75
38.66
31.92
26.5
22.69
20.16
18.22
16.16
13.59
10.57
7.42
4.48
1.79
-0.9
-4.01
-8.01
-13.12
-19.42
-26.88
-35.44
-44.94
-54.91
-64.41
-71.97
-75.85
-74.54
-67.25
-54.26
-36.87
-17.02
3.18
21.94
37.97
50.48
59.12
63.8
64.77
62.57
58.09
52.41
46.56
41.39
37.35
34.54
32.78
31.69
30.84
29.75
27.97
25.17
21.19
16.11
10.2
3.78
-2.91
-9.76
-16.86
-24.45
-32.83
-42.27
-52.85
-64.22
-75.44
-84.95
-90.89
-91.62
-86.25
-74.98
-59.05
-40.37
-20.98
-2.6
13.53
26.62
36.21
42.15
44.52
43.75
40.61
36.03
30.96
26.18
22.22
19.34
17.61
16.97
17.15
17.76
18.2
17.79
15.98
12.49
7.49
1.5
-4.76
-10.67
-15.97
-20.83
-25.72
-31.23
-37.83
-45.68
-54.52
-63.61
-71.73
-77.38
-78.98
-75.37
-66.12
-51.75
-33.63
-13.69
6.13
24.13
39.14
50.44
57.69
60.95
60.6
57.43
52.5
46.99
41.92
37.93
35.2
33.47
32.22
30.9
29.04
26.43
23.14
19.37
15.34
11.19
6.89
2.29
-2.76
-8.41
-14.8
-22
-30.03
-38.63
-47.17
-54.55
-59.38
-60.3
-56.43
-47.7
-34.85
-19.32
-2.79
13.1
27
37.91
45.22
48.73
48.68
45.66
40.61
34.58
28.52
23.06
18.48
14.77
11.74
9.23
7.17
5.58
4.45
3.71
3.14
2.45
1.24
-0.84
-4.15
-8.93
-15.25
-22.86
-31.12
-39.01
-45.23
-48.5
-47.84
-42.79
-33.48
-20.64
-5.45
10.7
26.3
39.88
50.18
56.31
57.93
55.35
49.54
41.88
33.91
26.91
21.66
18.31
16.48
15.5
14.63
13.33
11.33
8.58
5.14
1.04
-3.75
-9.44
-16.23
-24.29
-33.52
-43.41
-53.02
-61
-65.88
-66.37
-61.68
-51.77
-37.38
-19.84
-0.87
17.74
34.38
47.76
57
61.71
61.99
58.47
52.16
44.35
36.34
29.16
23.32
18.77
15.04
11.51
7.76
3.68
-0.5
-4.5
-8.18
-11.73
-15.67
-20.69
-27.45
-36.33
-47.16
-59.09
-70.59
-79.68
-84.31
-82.93
-74.89
-60.65
-41.66
-19.98
2.25
23.15
41.4
56.2
67.17
74.24
77.48
77.16
73.75
67.98
60.83
53.36
46.53
40.89
36.54
33.07
29.85
26.24
21.84
16.61
10.75
4.58
-1.68
-7.99
-14.48
-21.42
-29.08
-37.76
-47.59
-58.43
-69.7
-80.22
-88.33
-92.19
-90.25
-81.75
-66.99
-47.29
-24.58
-0.94
21.88
42.64
60.6
75.31
86.45
93.76
97.18
96.96
93.84
88.91
83.37
78.19
73.84
70.36
67.47
64.91
62.5
60.24
58.14
56.08
53.74
50.7
46.62
41.32
34.94
27.82
20.46
13.28
6.52
0.23
-5.75
-11.71
-17.88
-24.41
-31.29
-38.34
-45.31
-51.96
-58.11
-63.74
-69.02
-74.3
-80.03
-86.77
-94.91
-104.46
-114.83
-124.68
-132
-134.62
-130.74
-119.53
-101.43
-78.07
-51.7
-24.62
1.34
25.03
45.83
63.39
77.44
87.7
94.08
96.76
96.32
93.6
89.59
85.16
80.88
77.06
73.71
70.74
68.01
65.47
63.09
60.88
58.75
56.51
53.81
50.31
45.74
40.07
33.51
26.51
19.57
13.07
7.12
1.53
-4.14
-10.3
-17.23
-24.86
-32.8
-40.5
-47.49
-53.56
-58.83
-63.7
-68.79
-74.71
-81.94
-90.66
-100.52
-110.54
-119.11
-124.19
-123.78
-116.54
-102.21
-81.78
-57.26
-31.06
-5.45
17.93
38.14
54.81
67.87
77.38
83.52
86.57
87.04
85.57
82.89
79.62
76.26
73.08
70.21
67.66
65.38
63.25
61.18
59.1
56.93
54.61
51.96
48.72
44.64
39.55
33.53
26.89
20.07
13.45
7.28
1.56
-3.85
-9.16
-14.58
-20.23
-26.14
-32.28
-38.52
-44.7
-50.61
-56.11
-61.18
-66.01
-70.99
-76.65
-83.37
-91.14
-99.33
-106.63
-111.29
-111.53
-106.09
-94.63
-77.85
-57.32
-34.99
-12.82
7.62
25.27
39.55
50.24
57.44
61.43
62.69
61.79
59.37
56.01
52.2
48.35
44.76
41.69
39.34
37.79
36.94
36.54
36.19
35.52
34.18
32.01
28.96
25.07
20.44
15.15
9.41
3.51
-2.21
-7.4
-11.89
-15.75
-19.27
-22.82
-26.71
-31.03
-35.64
-40.23
-44.54
-48.4
-51.77
-54.84
-57.9
-61.32
-65.48
-70.61
-76.68
-83.15
-89.02
-92.88
-93.32
-89.32
-80.64
-67.9
-52.35
-35.55
-18.9
-3.48
10.05
21.31
30.03
36.03
39.29
40.04
38.85
36.57
34.08
32.09
30.9
30.45
30.41
30.46
30.42
30.34
30.35
30.53
30.75
30.74
30.15
28.72
26.35
23.19
19.53
15.68
11.93
8.39
5.01
1.61
-2.03
-6.06
-10.5
-15.22
-20.06
-24.86
-29.51
-33.95
-38.2
-42.28
-46.3
-50.5
-55.12
-60.31
-65.84
-70.94
-74.43
-74.95
-71.49
-63.72
-52.11
-37.74
-21.94
-5.97
9.2
22.78
34.12
42.63
47.92
49.91
48.98
45.88
41.54
36.85
32.5
28.87
26.14
24.31
23.29
22.91
22.97
23.26
23.57
23.67
23.35
22.44
20.81
18.42
15.35
11.82
8.06
4.25
0.5
-3.29
-7.23
-11.48
-16.04
-20.83
-25.67
-30.42
-34.99
-39.44
-43.89
-48.58
-53.71
-59.45
-65.8
-72.47
-78.79
-83.73
-86.05
-84.57
-78.56
-67.92
-53.28
-35.89
-17.31
0.91
17.5
31.57
42.6
50.38
54.97
56.57
55.63
52.77
48.79
44.54
40.71
37.77
35.88
34.87
34.46
34.29
34.05
33.55
32.67
31.36
29.59
27.29
24.44
21.03
17.07
12.61
7.73
2.45
-3.25
-9.36
-15.89
-22.69
-29.53
-36.13
-42.3
-48.08
-53.81
-60.04
-67.34
-75.98
-85.67
-95.41
-103.63
-108.48
-108.37
-102.39
-90.51
-73.62
-53.17
-30.89
-8.43
12.77
31.52
46.9
58.34
65.64
69.06
69.22
66.99
63.26
58.78
54.07
49.44
45.13
41.32
38.2
35.9
34.39
33.45
32.62
31.31
28.97
25.23
20.04
13.64
6.47
-0.99
-8.41
-15.68
-22.93
-30.52
-38.94
-48.59
-59.59
-71.52
-83.29
-93.2
-99.29
-99.84
-93.81
-81.16
-62.84
-40.52
-16.22
8.09
30.67
50.17
65.64
76.56
82.84
84.8
83.14
78.8
72.85
66.32
60.06
54.6
50.1
46.47
43.48
40.92
38.65
36.57
34.49
32.04
28.76
24.26
18.37
11.28
3.49
-4.46
-12.21
-19.64
-26.98
-34.68
-43.27
-53.21
-64.74
-77.52
-90.49
-101.84
-109.22
-110.35
-103.72
-89.07
-67.61
-41.64
-13.91
13.04
37.27
57.55
73.23
84.02
89.89
91.17
88.53
83.1
76.27
69.36
63.42
58.91
55.79
53.66
51.99
50.44
48.9
47.48
46.24
45.05
43.46
40.84
36.61
30.48
22.66
13.69
4.33
-4.76
-13.21
-21.01
-28.5
-36.24
-44.85
-54.8
-66.28
-78.89
-91.54
-102.49
-109.58
-110.84
-104.92
-91.66
-72.04
-48.01
-21.93
3.92
27.66
47.92
63.78
74.69
80.51
81.54
78.54
72.62
65.16
57.44
50.49
44.9
40.84
38.06
36.11
34.55
33.09
31.61
30.05
28.33
26.16
23.17
19
13.53
7.02
-0.05
-7.08
-13.67
-19.72
-25.44
-31.23
-37.56
-44.84
-53.3
-62.9
-73.1
-82.8
-90.39
-94.02
-92.1
-83.75
-69.12
-49.39
-26.44
-2.48
20.41
40.58
56.81
68.37
75.02
76.92
74.72
69.44
62.38
54.8
47.78
41.99
37.66
34.67
32.7
31.41
30.5
29.69
28.68
27.13
24.66
21.01
16.17
10.37
4.05
-2.36
-8.63
-14.78
-21.12
-28.07
-36.01
-45.03
-54.7
-64.03
-71.49
-75.34
-74.07
-66.89
-54
-36.62
-16.57
4.12
23.62
40.55
53.96
63.22
68.07
68.56
65.19
58.84
50.75
42.22
34.46
28.37
24.42
22.63
22.59
23.55
24.57
24.76
23.48
20.47
15.9
10.23
3.94
-2.62
-9.34
-16.41
-24.1
-32.71
-42.34
-52.74
-63.17
-72.47
-79.11
-81.46
-78.28
-69.04
-54.17
-35.05
-13.66
7.86
27.61
44.19
56.77
64.99
68.89
68.81
65.36
59.44
52.06
44.31
37.08
31
26.35
23.09
20.96
19.52
18.26
16.69
14.47
11.4
7.5
2.92
-2.17
-7.64
-13.49
-19.82
-26.83
-34.79
-43.93
-54.26
-65.37
-76.27
-85.32
-90.58
-90.24
-83.25
-69.7
-50.85
-28.74
-5.69
16.25
35.62
51.51
63.45
71.24
74.89
74.67
71.18
65.34
58.25
51.04
44.54
39.22
35.12
31.97
29.35
26.87
24.21
21.19
17.64
13.43
8.47
2.74
-3.63
-10.41
-17.36
-24.37
-31.6
-39.5
-48.6
-59.14
-70.72
-82.07
-91.22
-95.91
-94.36
-85.78
-70.67
-50.63
-27.91
-4.72
17.11
36.31
52.11
64.03
71.77
75.31
74.98
71.5
66
59.71
53.71
48.62
44.59
41.37
38.61
36.09
33.8
31.84
30.25
28.81
27.02
24.27
20.09
14.29
7.08
-1.04
-9.49
-17.79
-25.66
-33.11
-40.37
-47.84
-55.96
-65.1
-75.28
-86.03
-96.24
-104.27
-108.27
-106.71
-98.74
-84.55
-65.28
-42.73
-18.98
4.07
24.83
42.2
55.46
64.27
68.74
69.38
67.03
62.82
57.78
52.78
48.3
44.53
41.47
38.99
37.01
35.45
34.19
33
31.5
29.24
25.82
21
14.9
7.91
0.53
-6.74
-13.67
-20.34
-27.11
-34.43
-42.7
-52.05
-62.12
-72.01
-80.23
-84.98
-84.61
-78.16
-65.69
-48.36
-28.12
-7.14
12.71
30.04
44.06
54.34
60.66
63.08
61.9
57.74
51.56
44.39
37.27
30.96
25.9
22.18
19.6
17.74
16.12
14.28
11.94
8.92
5.23
0.97
-3.76
-8.87
-14.35
-20.31
-26.91
-34.31
-42.62
-51.75
-61.26
-70.32
-77.69
-81.91
-81.6
-75.89
-64.73
-48.95
-30.15
-10.26
8.87
25.76
39.45
49.4
55.39
57.42
55.78
51.11
44.38
36.82
29.65
23.79
19.69
17.26
16.04
15.35
14.56
13.23
11.13
8.22
4.59
0.33
-4.44
-9.63
-15.17
-21.07
-27.4
-34.34
-42.03
-50.41
-58.99
-66.71
-72.05
-73.42
-69.65
-60.42
-46.43
-29.26
-10.83
7.04
22.93
35.9
45.38
51.03
52.79
50.93
46.14
39.52
32.34
25.75
20.55
17.05
15.11
14.28
13.95
13.55
12.6
10.85
8.25
4.92
1.08
-3.07
-7.5
-12.32
-17.73
-23.99
-31.24
-39.44
-48.14
-56.54
-63.41
-67.41
-67.3
-62.34
-52.49
-38.44
-21.46
-3.16
14.83
31.05
44.29
53.74
58.94
59.91
57.12
51.47
44.15
36.4
29.31
23.61
19.5
16.74
14.75
12.93
10.86
8.38
5.56
2.53
-0.67
-4.16
-8.19
-13.03
-18.92
-26.01
-34.33
-43.69
-53.53
-62.82
-70.09
-73.69
-72.22
-65.02
-52.36
-35.41
-15.97
4.05
22.92
39.29
52.21
61.06
65.58
65.86
62.43
56.24
48.47
40.31
32.79
26.57
21.96
18.85
16.89
15.49
14.01
11.91
8.82
4.64
-0.52
-6.38
-12.65
-19.13
-25.8
-32.89
-40.83
-50.06
-60.72
-72.26
-83.3
-91.84
-95.74
-93.41
-84.28
-68.98
-49.06
-26.51
-3.34
18.72
38.27
54.25
65.96
73.1
75.83
74.76
70.84
65.18
58.8
52.54
46.91
42.2
38.48
35.66
33.47
31.49
29.18
26.05
21.73
16.18
9.6
2.36
-5.15
-12.7
-20.31
-28.21
-36.8
-46.52
-57.64
-69.97
-82.57
-93.72
-101.15
-102.69
-96.99
-83.94
-64.75
-41.48
-16.46
8.3
31.34
51.61
68.37
81.01
89.13
92.7
92.21
88.66
83.3
77.42
71.94
67.35
63.7
60.69
57.93
55.11
52.07
48.81
45.39
41.79
37.86
33.36
27.96
21.44
13.77
5.15
-4.02
-13.24
-22.11
-30.38
-38.1
-45.51
-53.06
-61.25
-70.63
-81.5
-93.74
-106.48
-118.11
-126.4
-129.07
-124.43
-112.01
-92.66
-68.28
-41.22
-13.73
12.45
36.06
56.18
72.07
83.23
89.53
91.42
89.88
86.22
81.73
77.36
73.62
70.58
68.12
66.12
64.54
63.38
62.57
61.86
60.77
58.77
55.42
50.58
44.48
37.63
30.61
23.75
17.06
10.21
2.78
-5.49
-14.49
-23.76
-32.66
-40.74
-47.85
-54.29
-60.68
-67.78
-76.24
-86.42
-98.08
-110.28
-121.34
-129.1
-131.43
-126.78
-114.71
-96.02
-72.49
-46.41
-20.03
4.84
26.92
45.46
60.02
70.39
76.62
78.99
78.2
75.24
71.26
67.35
64.27
62.28
61.18
60.51
59.84
58.91
57.67
56.18
54.4
52.15
49.18
45.27
40.37
34.65
28.44
22.11
16.03
10.36
5.08
-0.06
-5.4
-11.29
-17.86
-25
-32.29
-39.24
-45.42
-50.7
-55.28
-59.56
-64.07
-69.32
-75.69
-83.27
-91.75
-100.22
-107.12
-110.56
-108.74
-100.56
-85.99
-66.17
-43.02
-18.71
4.81
26.1
44.21
58.53
68.63
74.34
75.9
73.98
69.75
64.53
59.56
55.67
53.15
51.86
51.39
51.34
51.42
51.46
51.32
50.81
49.65
47.5
44.13
39.56
34.08
28.21
22.49
17.25
12.52
8.02
3.39
-1.68
-7.25
-13.14
-19.09
-24.87
-30.38
-35.66
-40.82
-46.07
-51.66
-57.92
-65.14
-73.25
-81.7
-89.25
-94.24
-94.93
-90.1
-79.38
-63.36
-43.43
-21.36
1.02
22.09
40.53
55.35
65.89
71.93
73.73
72.04
68.01
62.86
57.66
53.09
49.4
46.57
44.45
42.94
41.95
41.41
41.04
40.44
39.15
36.82
33.41
29.15
24.46
19.66
14.88
10.06
4.99
-0.5
-6.48
-12.87
-19.5
-26.2
-32.78
-39.1
-45.07
-50.71
-56.21
-61.99
-68.6
-76.47
-85.55
-95.11
-103.65
-109.26
-110.09
-104.99
-93.74
-77.13
-56.65
-34.07
-11.12
10.72
30.22
46.43
58.71
66.8
70.91
71.62
69.8
66.38
62.24
58.09
54.39
51.44
49.31
47.91
47.05
46.48
45.91
45.09
43.74
41.64
38.65
34.7
29.92
24.56
18.95
13.38
7.97
2.66
-2.79
-8.65
-15.08
-22.08
-29.46
-36.87
-44.02
-50.76
-57.22
-63.78
-70.99
-79.29
-88.75
-98.83
-108.32
-115.47
-118.42
-115.74
-106.77
-91.88
-72.34
-49.91
-26.48
-3.65
17.36
35.72
50.88
62.5
70.4
74.69
75.76
74.33
71.33
67.67
64.05
60.86
58.16
55.87
53.87
52.19
50.94
50.18
49.81
49.46
48.57
46.59
43.22
38.55
33
27.13
21.45
16.14
11.14
6.16
0.88
-4.96
-11.49
-18.67
-26.35
-34.2
-41.89
-49.14
-55.85
-62.25
-68.78
-76.04
-84.46
-93.98
-103.89
-112.8
-118.9
-120.45
-116.18
-105.72
-89.65
-69.32
-46.49
-22.94
-0.25
20.42
38.16
52.33
62.55
68.74
71.24
70.79
68.42
65.22
62.08
59.57
57.88
56.9
56.39
56.1
55.84
55.47
54.89
53.97
52.56
50.46
47.5
43.58
38.68
32.94
26.69
20.29
14.09
8.24
2.66
-2.94
-8.89
-15.38
-22.38
-29.63
-36.72
-43.32
-49.25
-54.57
-59.56
-64.66
-70.42
-77.3
-85.52
-94.83
-104.31
-112.48
-117.5
-117.71
-112.08
-100.47
-83.68
-63.21
-40.79
-18.06
3.57
23.01
39.38
52.08
60.8
65.65
67.15
66.22
63.9
61.13
58.56
56.46
54.8
53.46
52.39
51.6
51.16
51.05
51.08
50.86
50.03
48.26
45.4
41.52
36.79
31.49
25.94
20.41
15.1
10.05
5.08
-0.08
-5.74
-12
-18.71
-25.53
-32.11
-38.2
-43.77
-48.98
-54.11
-59.5
-65.5
-72.32
-79.93
-87.85
-95.01
-99.9
-100.84
-96.52
-86.4
-70.92
-51.39
-29.62
-7.45
13.5
32.07
47.47
59.23
67.12
71.21
71.83
69.71
65.83
61.25
56.84
53.18
50.46
48.65
47.59
47.16
47.27
47.78
48.37
48.59
47.91
45.96
42.64
38.14
32.9
27.31
21.65
15.95
10.07
3.82
-2.85
-9.86
-17
-24.02
-30.73
-37.06
-43.04
-48.83
-54.7
-61.05
-68.26
-76.57
-85.76
-94.97
-102.67
-107.03
-106.34
-99.56
-86.6
-68.34
-46.36
-22.53
1.3
23.53
42.95
58.63
70.04
76.97
79.65
78.68
75.04
69.91
64.43
59.54
55.79
53.32
51.91
51.21
50.83
50.48
50.01
49.23
47.96
45.9
42.83
38.67
33.59
27.95
22.13
16.31
10.43
4.19
-2.69
-10.28
-18.38
-26.56
-34.41
-41.74
-48.62
-55.37
-62.36
-69.98
-78.54
-88.19
-98.76
-109.6
-119.4
-126.32
-128.39
-124.07
-112.83
-95.31
-73.15
-48.45
-23.26
0.79
22.55
41.21
56.2
67.17
74.07
77.22
77.39
75.52
72.59
69.31
66.11
63.18
60.57
58.39
56.78
55.9
55.7
55.86
55.81
54.83
52.37
48.23
42.64
36.17
29.47
22.99
16.82
10.77
4.47
-2.4
-9.92
-17.96
-26.19
-34.28
-42.03
-49.39
-56.5
-63.68
-71.37
-80.03
-89.88
-100.67
-111.36
-120.2
-125.05
-124.01
-116.01
-101.14
-80.66
-56.52
-30.84
-5.49
18.11
38.88
55.99
68.84
77.14
81.07
81.34
79.05
75.43
71.56
68.15
65.47
63.48
62.04
61.04
60.49
60.35
60.41
60.28
59.39
57.25
53.64
48.73
42.94
36.78
30.59
24.49
18.4
12.16
5.6
-1.36
-8.7
-16.35
-24.14
-31.87
-39.32
-46.41
-53.27
-60.24
-67.9
-76.76
-87.05
-98.39
-109.69
-119.15
-124.69
-124.43
-117.21
-102.96
-82.7
-58.27
-31.89
-5.68
18.64
39.73
56.73
69.16
76.92
80.36
80.2
77.46
73.29
68.69
64.45
60.99
58.44
56.74
55.7
55.08
54.64
54.16
53.37
52.04
49.94
46.92
42.89
37.96
32.34
26.36
20.33
14.42
8.58
2.57
-3.95
-11.21
-19.17
-27.5
-35.7
-43.33
-50.2
-56.48
-62.61
-69.2
-76.8
-85.59
-95.24
-104.74
-112.47
-116.56
-115.27
-107.52
-93.19
-73.26
-49.46
-23.94
1.23
24.28
44
59.55
70.6
77.15
79.5
78.3
74.5
69.19
63.55
58.59
54.97
52.9
52.21
52.49
53.27
54.17
54.89
55.13
54.56
52.84
49.73
45.24
39.64
33.4
26.97
20.62
14.27
7.63
0.36
-7.66
-16.2
-24.76
-32.8
-40.03
-46.53
-52.81
-59.48
-67.13
-75.99
-85.82
-95.79
-104.52
-110.25
-111.19
-106.03
-94.22
-76.34
-53.89
-28.96
-3.68
20.15
41.19
58.6
71.82
80.58
84.93
85.24
82.32
77.24
71.18
65.18
59.98
55.93
53.06
51.19
50.08
49.43
48.95
48.26
46.99
44.81
41.53
37.16
31.94
26.17
20.15
13.98
7.59
0.8
-6.55
-14.44
-22.68
-30.92
-38.81
-46.15
-52.95
-59.51
-66.31
-73.91
-82.72
-92.78
-103.46
-113.43
-120.82
-123.59
-120.1
-109.62
-92.52
-70.26
-44.87
-18.57
6.73
29.61
49.08
64.54
75.62
82.26
84.72
83.67
80.09
75.12
69.9
65.28
61.77
59.53
58.4
58.05
58.06
58
57.44
56.02
53.49
49.77
44.93
39.2
32.83
26.04
18.98
11.7
4.22
-3.42
-11.14
-18.85
-26.39
-33.62
-40.49
-47.05
-53.56
-60.45
-68.24
-77.39
-87.98
-99.48
-110.6
-119.38
-123.69
-121.76
-112.77
-97.05
-75.97
-51.51
-25.78
-0.6
22.57
42.64
58.81
70.53
77.66
80.53
79.92
76.94
72.81
68.54
64.83
61.97
59.93
58.55
57.63
57.02
56.57
56.02
54.99
53.03
49.82
45.32
39.88
33.99
28.14
22.51
16.95
11.08
4.5
-2.95
-11.13
-19.62
-28.01
-35.95
-43.32
-50.25
-57.06
-64.18
-72.06
-81.11
-91.38
-102.46
-113.17
-121.74
-126.04
-124.25
-115.41
-99.76
-78.65
-54.16
-28.49
-3.49
19.44
39.37
55.65
67.79
75.58
79.11
79.03
76.37
72.39
68.28
64.85
62.46
61.01
60.19
59.63
59.09
58.42
57.47
56.03
53.83
50.63
46.3
40.94
34.77
28.17
21.46
14.86
8.43
2.05
-4.54
-11.56
-19.06
-26.92
-34.8
-42.34
-49.35
-55.95
-62.56
-69.82
-78.3
-88.24
-99.24
-110.15
-119.18
-124.2
-123.3
-115.35
-100.36
-79.49
-54.72
-28.37
-2.5
21.3
41.95
58.77
71.3
79.31
82.91
82.69
79.73
75.4
70.99
67.41
65.01
63.6
62.74
62.03
61.29
60.49
59.64
58.57
56.9
54.16
50.09
44.68
38.28
31.43
24.61
18.11
11.9
5.67
-0.92
-8.13
-15.96
-24.18
-32.37
-40.13
-47.2
-53.69
-59.98
-66.71
-74.54
-83.87
-94.54
-105.62
-115.48
-122.06
-123.38
-118.08
-105.81
-87.31
-64.2
-38.54
-12.43
12.3
34.27
52.5
66.4
75.77
80.77
81.97
80.24
76.67
72.28
67.95
64.26
61.46
59.6
58.5
57.88
57.42
56.78
55.66
53.83
51.14
47.51
42.95
37.54
31.53
25.25
18.99
12.92
6.94
0.73
-6.05
-13.57
-21.73
-30.08
-38.13
-45.55
-52.35
-58.91
-65.91
-74.06
-83.73
-94.77
-106.28
-116.64
-123.77
-125.61
-120.67
-108.48
-89.71
-65.98
-39.51
-12.57
12.89
35.38
53.9
67.9
77.17
81.92
82.7
80.42
76.22
71.28
66.57
62.76
60.12
58.55
57.84
57.67
57.71
57.65
57.06
55.54
52.71
48.43
42.85
36.39
29.6
22.91
16.51
10.27
3.9
-2.93
-10.38
-18.39
-26.64
-34.77
-42.5
-49.73
-56.64
-63.63
-71.19
-79.77
-89.5
-99.97
-110.13
-118.31
-122.55
-121.04
-112.7
-97.53
-76.64
-52
-25.88
-0.38
22.87
42.75
58.57
69.95
76.75
79.27
78.21
74.69
69.97
65.22
61.23
58.34
56.56
55.66
55.38
55.39
55.31
54.69
53.08
50.14
45.76
40.14
33.69
26.93
20.3
14.02
8.12
2.4
-3.42
-9.63
-16.36
-23.6
-31.13
-38.68
-46.03
-53.16
-60.33
-68.01
-76.68
-86.53
-97.14
-107.26
-115
-118.2
-115.1
-104.86
-87.95
-65.9
-40.96
-15.47
8.64
29.93
47.52
60.82
69.52
73.6
73.52
70.23
65.15
59.76
55.29
52.38
50.97
50.48
50.14
49.33
47.79
45.62
43.15
40.57
37.87
34.75
30.73
25.48
18.94
11.4
3.42
-4.44
-11.74
-18.38
-24.54
-30.63
-37.1
-44.45
-53.07
-63.13
-74.41
-86.07
-96.69
-104.36
-107.22
-103.88
-93.9
-77.87
-57.26
-34.04
-10.25
12.33
32.22
48.39
60.17
67.31
70.06
69.13
65.61
60.74
55.65
51.14
47.58
44.96
43.05
41.53
40.21
38.96
37.72
36.38
34.62
32.06
28.28
23.06
16.51
9.05
1.23
-6.41
-13.67
-20.65
-27.72
-35.39
-44.1
-54.07
-65.15
-76.76
-87.75
-96.54
-101.34
-100.57
-93.37
-79.89
-61.28
-39.37
-16.22
6.31
26.72
43.92
57.11
65.82
69.92
69.78
66.29
60.74
54.52
48.81
44.27
41.05
38.8
37.03
35.31
33.44
31.47
29.47
27.36
24.8
21.26
16.29
9.73
1.87
-6.66
-15.12
-22.96
-29.98
-36.37
-42.64
-49.39
-57.21
-66.44
-77.02
-88.23
-98.71
-106.54
-109.74
-106.79
-97.1
-81.21
-60.63
-37.37
-13.52
9.14
29.19
45.62
57.69
65.07
67.88
66.77
62.87
57.5
51.9
46.95
43.08
40.31
38.42
37.16
36.3
35.63
34.87
33.65
31.55
28.23
23.58
17.77
11.18
4.26
-2.59
-9.17
-15.53
-21.85
-28.52
-35.97
-44.64
-54.7
-65.85
-77.06
-86.63
-92.52
-92.83
-86.44
-73.37
-54.87
-33.02
-10.19
11.5
30.54
46.02
57.58
65.1
68.67
68.6
65.46
60.1
53.55
46.85
40.81
35.91
32.29
29.89
28.41
27.48
26.57
25.09
22.5
18.44
12.9
6.25
-0.9
-7.93
-14.38
-20.21
-25.82
-31.95
-39.51
-49.08
-60.6
-73.02
-84.36
-92.12
-93.96
-88.45
-75.55
-56.67
-34.19
-10.78
11.34
30.7
46.62
58.92
67.56
72.54
73.88
71.89
67.19
60.71
53.39
45.96
38.78
32.03
25.99
21.24
18.64
19
22.56
28.7
35.92
42.31
46.12
46.33
42.76
35.96
26.83
16.23
4.8
-7.06
-19.14
-31.43
-44.05
-57.18
-70.82
-84.39
-96.6
-105.48
-108.9
-105.27
-94.17
-76.58
-54.54
-30.46
-6.57
15.55
34.86
50.68
62.46
69.83
72.76
71.77
67.94
62.65
57.15
52.25
48.22
44.89
41.93
39.16
36.53
34.15
32.05
30.06
27.76
24.61
20.11
14.05
6.57
-1.91
-10.74
-19.3
-27.18
-34.3
-41
-47.98
-56.1
-66.05
-77.91
-90.87
-103.12
-112.24
-115.74
-111.82
-99.95
-80.93
-56.67
-29.63
-2.18
23.77
46.83
66.16
81.22
91.71
97.64
99.33
97.54
93.35
87.93
82.33
77.29
73.17
69.99
67.58
65.64
63.82
61.74
59.1
55.66
51.36
46.27
40.53
34.2
27.23
19.52
11.04
1.93
-7.54
-16.99
-26.15
-34.84
-43.03
-50.78
-58.25
-65.68
-73.46
-82.11
-91.99
-103.02
-114.38
-124.42
-130.94
-131.79
-125.48
-111.61
-91.03
-65.52
-37.3
-8.58
18.78
43.41
64.28
80.71
92.3
99.02
101.28
99.95
96.23
91.34
86.27
81.61
77.53
73.96
70.76
67.88
65.38
63.23
61.24
58.98
55.9
51.54
45.76
38.79
31.23
23.77
16.92
10.79
5.04
-0.97
-7.85
-15.9
-24.93
-34.41
-43.66
-52.2
-59.9
-67.01
-74.04
-81.57
-90.14
-99.91
-110.55
-121
-129.52
-134
-132.46
-123.63
-107.43
-85.04
-58.54
-30.4
-2.87
22.33
44.15
62.01
75.66
85.05
90.35
92.02
90.83
87.82
84.03
80.31
77.12
74.56
72.44
70.58
68.89
67.32
65.86
64.31
62.35
59.54
55.59
50.38
44.05
36.95
29.52
22.12
14.99
8.21
1.65
-4.95
-11.92
-19.45
-27.51
-35.8
-43.84
-51.13
-57.47
-62.99
-68.2
-73.81
-80.43
-88.49
-98.01
-108.57
-119.12
-128.13
-133.67
-133.85
-127.33
-113.73
-93.85
-69.46
-42.78
-15.94
9.36
31.99
51.19
66.39
77.22
83.6
85.89
84.9
81.8
77.75
73.69
70.13
67.2
64.83
62.86
61.28
60.1
59.29
58.66
57.82
56.3
53.68
49.77
44.65
38.59
32.01
25.31
18.75
12.44
6.25
-0.07
-6.78
-14.08
-21.94
-30.1
-38.15
-45.65
-52.36
-58.3
-63.78
-69.28
-75.33
-82.38
-90.61
-99.81
-109.19
-117.39
-122.65
-123.24
-117.88
-106.16
-88.64
-66.71
-42.23
-17.09
6.99
28.69
46.95
61.07
70.72
76.01
77.53
76.27
73.34
69.81
66.45
63.69
61.67
60.33
59.52
59.04
58.66
58.14
57.24
55.74
53.47
50.29
46.16
41.1
35.27
28.86
22.1
15.16
8.14
1.01
-6.29
-13.8
-21.51
-29.31
-36.98
-44.32
-51.19
-57.61
-63.88
-70.47
-77.88
-86.42
-95.96
-105.67
-114.18
-119.78
-120.89
-116.47
-106.31
-91.01
-71.79
-50.15
-27.61
-5.51
15.03
33.08
47.91
59
66.11
69.44
69.53
67.25
63.59
59.52
55.81
52.97
51.15
50.23
49.88
49.62
49.03
47.79
45.76
42.96
39.46
35.29
30.33
24.43
17.51
9.74
1.53
-6.59
-14.19
-21.11
-27.5
-33.72
-40.12
-46.99
-54.58
-63.01
-72.32
-82.14
-91.55
-99.1
-103.02
-101.79
-94.65
-81.83
-64.52
-44.39
-23.21
-2.48
16.56
32.98
46.03
55.27
60.63
62.49
61.63
58.98
55.39
51.49
47.67
44.18
41.21
38.94
37.43
36.58
36.01
35.16
33.43
30.36
25.77
19.8
12.83
5.38
-2.09
-9.27
-16.13
-22.83
-29.74
-37.29
-45.83
-55.42
-65.7
-75.78
-84.25
-89.47
-89.97
-84.86
-74.14
-58.7
-40.05
-19.96
0.01
18.65
35.09
48.69
58.94
65.48
68.21
67.48
64.05
58.93
53.18
47.58
42.63
38.5
35.13
32.35
29.95
27.65
25.12
22.03
18.11
13.24
7.5
1.11
-5.63
-12.46
-19.29
-26.29
-33.84
-42.36
-52.09
-62.69
-73.16
-81.86
-86.84
-86.46
-79.87
-67.24
-49.77
-29.28
-7.79
12.85
31.19
46.22
57.31
64.18
66.87
65.77
61.62
55.46
48.43
41.65
35.95
31.77
29.03
27.25
25.75
23.84
21.05
17.16
12.29
6.68
0.69
-5.39
-11.37
-17.26
-23.25
-29.66
-36.92
-45.45
-55.35
-66.24
-77.01
-85.91
-90.86
-90.05
-82.42
-68.17
-48.64
-25.98
-2.55
19.55
38.78
54.13
65.05
71.33
73.14
71.03
65.98
59.17
51.88
45.17
39.78
36.04
33.87
32.85
32.36
31.66
30.13
27.37
23.28
18.03
11.91
5.27
-1.64
-8.65
-15.71
-22.93
-30.55
-39
-48.65
-59.62
-71.39
-82.67
-91.55
-95.95
-94.23
-85.76
-71.11
-51.87
-30.19
-8.27
12.06
29.42
42.92
52.09
56.82
57.42
54.6
49.39
42.91
36.21
30.11
25.1
21.43
19.06
17.82
17.33
17.06
16.39
14.75
11.73
7.25
1.58
-4.77
-11.24
-17.37
-23.02
-28.4
-34
-40.42
-48.21
-57.54
-68.03
-78.6
-87.46
-92.54
-91.99
-84.83
-71.27
-52.75
-31.43
-9.58
11.01
29.21
44.43
56.25
64.19
67.8
66.84
61.73
53.55
43.96
34.72
27.21
22.08
19.18
17.77
16.93
15.89
14.24
11.94
9.21
6.29
3.32
0.26
-3.11
-7.13
-12.11
-18.3
-25.77
-34.38
-43.63
-52.73
-60.55
-65.8
-67.27
-64.08
-56
-43.51
-27.79
-10.47
6.7
22.2
34.91
44.17
49.75
51.72
50.45
46.56
40.93
34.72
29.13
25.21
23.51
23.94
25.8
28.01
29.53
29.65
28.14
25.25
21.42
17.07
12.42
7.46
1.99
-4.24
-11.41
-19.51
-28.16
-36.56
-43.55
-47.83
-48.29
-44.35
-36.13
-24.4
-10.34
4.65
19.23
32.16
42.41
49.18
52.03
51.05
46.91
40.72
33.87
27.62
22.78
19.64
17.95
17.19
16.77
16.22
15.2
13.45
10.76
6.98
2.08
-3.86
-10.62
-17.97
-25.74
-33.65
-41.21
-47.53
-51.39
-51.58
-47.3
-38.48
-25.84
-10.71
5.41
21.17
35.47
47.37
56.11
61.02
61.77
58.59
52.32
44.3
35.98
28.52
22.55
18.09
14.75
12
9.41
6.66
3.63
0.18
-3.8
-8.47
-14
-20.6
-28.47
-37.81
-48.57
-60.26
-71.73
-81.23
-86.76
-86.57
-79.76
-66.58
-48.31
-26.92
-4.49
17.19
36.74
53.2
65.91
74.44
78.68
78.93
75.87
70.51
63.92
57.14
50.88
45.53
41.14
37.44
34.03
30.48
26.46
21.82
16.56
10.75
4.49
-2.21
-9.46
-17.46
-26.49
-36.84
-48.58
-61.39
-74.27
-85.59
-93.32
-95.5
-90.88
-79.23
-61.48
-39.36
-15
9.59
32.76
53.3
70.38
83.49
92.38
97.11
98.05
95.82
91.22
85.23
78.79
72.77
67.82
64.23
61.96
60.62
59.69
58.65
57.09
54.81
51.74
47.9
43.38
38.3
32.82
27.07
21.19
15.19
9.12
2.97
-3.14
-9.08
-14.74
-20.11
-25.33
-30.65
-36.3
-42.36
-48.72
-55.11
-61.23
-66.89
-72.11
-77.1
-82.32
-88.35
-95.7
-104.63
-114.82
-125.13
-133.65
-138.06
-136.19
-126.8
-109.94
-86.99
-60.2
-32.04
-4.6
20.7
43.08
62.11
77.42
88.71
95.8
98.83
98.4
95.47
91.16
86.46
82.03
78.15
74.83
71.94
69.45
67.37
65.72
64.38
63.04
61.24
58.48
54.44
49.07
42.61
35.5
28.2
21.08
14.32
7.96
1.89
-4.09
-10.21
-16.67
-23.47
-30.41
-37.09
-43.09
-48.12
-52.26
-55.93
-59.79
-64.53
-70.59
-78.05
-86.49
-95
-102.29
-106.83
-107.12
-102.06
-91.24
-75.07
-54.77
-32.06
-8.82
13.25
32.85
49.15
61.71
70.46
75.58
77.49
76.77
74.13
70.31
65.98
61.71
57.88
54.7
52.27
50.54
49.37
48.51
47.67
46.56
44.94
42.65
39.63
35.92
31.59
26.75
21.52
16.04
10.46
4.94
-0.39
-5.46
-10.27
-14.89
-19.47
-24.11
-28.84
-33.62
-38.32
-42.81
-47.01
-50.91
-54.63
-58.36
-62.38
-67.03
-72.56
-79.02
-86.01
-92.61
-97.47
-99.06
-96.13
-88.07
-75.1
-58.21
-38.87
-18.72
0.81
18.6
33.93
46.36
55.65
61.75
64.78
65.13
63.35
60.19
56.36
52.47
48.88
45.76
43.11
40.9
39.11
37.68
36.55
35.56
34.45
32.96
30.91
28.29
25.2
21.8
18.26
14.6
10.77
6.66
2.22
-2.47
-7.25
-11.9
-16.26
-20.27
-23.98
-27.49
-30.93
-34.41
-37.99
-41.72
-45.55
-49.39
-53.2
-56.98
-60.91
-65.32
-70.54
-76.63
-83.22
-89.32
-93.51
-94.32
-90.64
-82.06
-68.99
-52.53
-34.12
-15.31
2.61
18.62
32.05
42.53
49.95
54.41
56.25
55.95
54.1
51.32
48.21
45.25
42.74
40.81
39.44
38.49
37.85
37.4
37.04
36.67
36.13
35.21
33.76
31.67
28.99
25.88
22.52
19.04
15.44
11.62
7.48
3.02
-1.62
-6.21
-10.54
-14.53
-18.25
-21.91
-25.71
-29.83
-34.35
-39.21
-44.27
-49.27
-53.97
-58.22
-62.1
-66.01
-70.51
-76.13
-83.06
-90.89
-98.68
-105.02
-108.4
-107.56
-101.7
-90.69
-75.09
-56.06
-35.16
-14.04
5.81
23.33
37.89
49.25
57.44
62.61
65.05
65.2
63.66
61.14
58.3
55.63
53.37
51.62
50.33
49.5
49.13
49.23
49.74
50.38
50.77
50.45
49.06
46.53
43.04
39
34.83
30.77
26.84
22.86
18.62
14.02
9.18
4.33
-0.27
-4.52
-8.47
-12.3
-16.22
-20.38
-24.86
-29.63
-34.63
-39.77
-45
-50.2
-55.38
-60.52
-65.78
-71.45
-77.93
-85.56
-94.31
-103.57
-111.96
-117.62
-118.68
-113.8
-102.65
-85.91
-65.13
-42.12
-18.66
3.81
24.18
41.58
55.37
65.18
71.04
73.4
73.11
71.17
68.52
65.86
63.61
61.87
60.58
59.61
58.91
58.44
58.26
58.34
58.58
58.68
58.25
56.91
54.42
50.79
46.32
41.42
36.5
31.84
27.51
23.43
19.42
15.27
10.85
6.12
1.18
-3.77
-8.54
-13.04
-17.36
-21.71
-26.32
-31.31
-36.59
-41.92
-47.03
-51.8
-56.24
-60.59
-65.16
-70.32
-76.39
-83.57
-91.66
-99.97
-107.17
-111.51
-111.29
-105.29
-93.14
-75.49
-53.77
-29.88
-5.8
16.71
36.27
51.98
63.43
70.67
74.06
74.24
71.95
68.01
63.28
58.63
54.73
52.03
50.66
50.36
50.73
51.32
51.8
52.01
51.88
51.37
50.37
48.77
46.5
43.61
40.27
36.77
33.3
29.95
26.58
22.93
18.74
13.91
8.59
3.13
-2.07
-6.77
-11.01
-15.12
-19.49
-24.34
-29.64
-35.07
-40.18
-44.65
-48.38
-51.59
-54.7
-58.21
-62.58
-68.12
-74.77
-82.02
-88.82
-93.7
-95.09
-91.71
-82.95
-69.03
-51.04
-30.58
-9.5
10.52
28.12
42.42
52.92
59.53
62.45
62.14
59.33
54.9
49.77
44.81
40.66
37.72
36.05
35.52
35.83
36.66
37.66
38.55
39.1
39.19
38.75
37.76
36.22
34.13
31.55
28.52
25.17
21.61
17.95
14.27
10.56
6.81
3
-0.91
-4.98
-9.3
-13.93
-18.86
-23.99
-29.1
-33.99
-38.5
-42.64
-46.59
-50.74
-55.53
-61.35
-68.27
-75.83
-83
-88.29
-90.14
-87.33
-79.34
-66.51
-49.89
-30.92
-11.12
8.15
25.72
40.68
52.3
60.14
64.08
64.41
61.76
57.05
51.32
45.51
40.4
36.41
33.7
32.16
31.57
31.67
32.21
32.95
33.62
33.98
33.76
32.79
30.97
28.28
24.78
20.59
15.87
10.81
5.65
0.54
-4.44
-9.38
-14.49
-20.03
-26.15
-32.79
-39.7
-46.54
-52.99
-58.98
-64.68
-70.49
-76.88
-84.26
-92.77
-102.16
-111.66
-119.99
-125.5
-126.53
-121.76
-110.63
-93.5
-71.6
-46.75
-20.99
3.75
25.9
44.38
58.6
68.45
74.21
76.48
76.03
73.63
70.02
65.8
61.43
57.3
53.67
50.78
48.77
47.65
47.21
47.15
47
46.32
44.76
42.12
38.42
33.8
28.5
22.72
16.64
10.28
3.58
-3.51
-11.03
-18.91
-26.97
-35.04
-43.05
-51.14
-59.7
-69.25
-80.19
-92.48
-105.37
-117.35
-126.35
-130.2
-127.24
-116.77
-99.25
-76.15
-49.6
-21.85
5.07
29.54
50.45
67.11
79.15
86.55
89.57
88.82
85.15
79.62
73.35
67.26
62.05
58.09
55.49
54.1
53.59
53.55
53.5
53.05
51.91
49.94
47.09
43.28
38.38
32.22
24.74
16.09
6.72
-2.79
-11.89
-20.24
-27.85
-34.98
-42.08
-49.65
-58.2
-68.08
-79.32
-91.38
-102.97
-112.1
-116.51
-114.24
-104.25
-86.78
-63.31
-36.15
-7.91
19.07
42.97
62.62
77.39
87.04
91.77
92.04
88.71
82.86
75.72
68.46
62
56.87
53.24
50.94
49.65
49.03
48.78
48.66
48.39
47.63
45.91
42.73
37.73
30.84
22.41
13.15
3.93
-4.53
-11.98
-18.68
-25.34
-32.87
-42.05
-53.2
-66.01
-79.37
-91.49
-100.15
-103.19
-99.06
-87.33
-68.83
-45.42
-19.58
6.2
29.84
49.91
65.58
76.45
82.46
83.86
81.28
75.73
68.56
61.2
54.84
50.21
47.41
46.03
45.43
45.01
44.46
43.72
42.85
41.75
40.09
37.33
32.9
26.59
18.59
9.55
0.35
-8.27
-15.96
-22.9
-29.64
-37.01
-45.74
-56.22
-68.24
-80.74
-91.91
-99.46
-101.15
-95.45
-82.04
-61.95
-37.32
-10.82
14.95
37.93
56.78
70.77
79.61
83.38
82.49
77.73
70.29
61.67
53.35
46.5
41.77
39.09
37.94
37.57
37.36
36.93
36.24
35.28
33.99
32.04
28.98
24.43
18.3
10.94
2.99
-4.83
-12.02
-18.49
-24.58
-30.98
-38.42
-47.52
-58.41
-70.52
-82.45
-92.12
-97.15
-95.55
-86.33
-69.89
-47.92
-22.98
2.24
25.45
45.08
60.21
70.46
75.77
76.42
73.09
66.86
59.11
51.25
44.39
39.16
35.67
33.66
32.68
32.35
32.35
32.41
32.19
31.26
29.16
25.54
20.28
13.62
6.06
-1.75
-9.3
-16.33
-23.03
-29.92
-37.66
-46.82
-57.43
-68.8
-79.43
-87.3
-90.3
-86.95
-76.85
-60.87
-40.94
-19.42
1.39
19.78
34.7
45.68
52.61
55.59
54.93
51.15
45.03
37.56
29.78
22.65
16.93
13.01
10.87
10.1
9.99
9.74
8.68
6.54
3.38
-0.46
-4.62
-8.87
-13.26
-17.98
-23.29
-29.44
-36.63
-44.92
-54.15
-63.68
-72.33
-78.4
-80.11
-76.08
-65.93
-50.42
-31.3
-10.81
8.9
26.15
39.89
49.62
55.17
56.64
54.44
49.24
42.09
34.23
26.87
20.92
16.85
14.55
13.53
13.08
12.52
11.42
9.6
7.13
4.2
0.92
-2.7
-6.79
-11.52
-17.13
-23.78
-31.55
-40.32
-49.61
-58.52
-65.76
-69.81
-69.39
-63.77
-53.08
-38.26
-20.86
-2.58
14.93
30.36
42.72
51.29
55.67
55.84
52.26
45.87
38.03
30.13
23.32
18.25
15
13.16
12.14
11.29
10.16
8.48
6.17
3.26
-0.15
-4
-8.29
-13.18
-18.93
-25.88
-34.22
-43.84
-54.1
-63.74
-71.05
-74.26
-71.99
-63.75
-50.06
-32.4
-12.7
7.06
25.25
40.69
52.59
60.43
63.96
63.26
58.89
51.88
43.61
35.5
28.65
23.62
20.41
18.58
17.45
16.31
14.61
12.01
8.44
3.97
-1.16
-6.69
-12.42
-18.3
-24.45
-31.21
-39.06
-48.33
-58.98
-70.26
-80.68
-88.21
-90.82
-87.11
-76.74
-60.53
-40.24
-18.04
3.96
24.05
41.03
54.16
63.1
67.86
68.77
66.5
61.99
56.31
50.49
45.33
41.27
38.38
36.43
35.06
33.85
32.45
30.53
27.78
23.88
18.65
12.13
4.61
-3.44
-11.5
-19.24
-26.61
-33.93
-41.73
-50.52
-60.59
-71.7
-82.86
-92.38
-98.15
-98.26
-91.55
-78.09
-59.15
-36.85
-13.47
9.06
29.46
47.01
61.31
72.01
78.93
82.07
81.87
79.26
75.43
71.53
68.37
66.24
64.99
64.25
63.63
62.84
61.82
60.55
58.98
57
54.35
50.77
46.1
40.36
33.81
26.9
20.12
13.78
7.97
2.45
-3.2
-9.4
-16.37
-24.02
-31.99
-39.81
-47.04
-53.47
-59.17
-64.46
-69.93
-76.23
-83.95
-93.32
-103.99
-114.82
-123.94
-129.12
-128.32
-120.32
-105.12
-83.96
-58.95
-32.51
-6.81
16.57
36.71
53.14
65.71
74.38
79.32
80.98
80.07
77.54
74.46
71.67
69.74
68.82
68.72
69.12
69.66
70.07
70.18
69.84
68.89
67.09
64.27
60.33
55.43
49.85
43.95
37.97
32.01
25.96
19.76
13.4
7.04
0.93
-4.76
-10.02
-15.05
-20.17
-25.61
-31.48
-37.62
-43.79
-49.72
-55.26
-60.47
-65.57
-70.99
-77.21
-84.61
-93.3
-102.83
-112.08
-119.34
-122.6
-120.16
-111.11
-95.64
-75.06
-51.39
-26.85
-3.42
17.48
34.94
48.45
57.82
63.11
64.7
63.38
60.22
56.41
53.01
50.69
49.67
49.72
50.4
51.24
51.88
52.16
52.06
51.62
50.86
49.69
47.97
45.52
42.23
38.1
33.3
28.08
22.74
17.5
12.49
7.7
3.07
-1.49
-6.13
-10.97
-16.08
-21.48
-26.99
-32.36
-37.3
-41.65
-45.51
-49.17
-53.14
-57.91
-63.87
-71
-78.81
-86.27
-91.86
-93.97
-91.22
-82.98
-69.52
-52.03
-32.26
-12.06
6.95
23.65
37.29
47.48
54.06
57.12
57.05
54.57
50.63
46.25
42.31
39.38
37.7
37.12
37.31
37.88
38.54
39.13
39.61
39.92
39.88
39.16
37.37
34.23
29.75
24.28
18.47
13.06
8.62
5.31
2.86
0.66
-2.01
-5.64
-10.35
-15.9
-21.77
-27.48
-32.73
-37.5
-41.98
-46.5
-51.44
-57.15
-63.76
-71.11
-78.49
-84.73
-88.28
-87.68
-81.96
-71.02
-55.69
-37.51
-18.26
0.42
17.26
31.44
42.5
50.24
54.69
56.1
54.96
51.97
47.94
43.65
39.8
36.85
35.05
34.35
34.53
35.23
36.05
36.59
36.57
35.77
34.12
31.55
28.09
23.81
18.89
13.6
8.25
3.1
-1.72
-6.33
-10.98
-15.96
-21.43
-27.28
-33.16
-38.64
-43.43
-47.52
-51.24
-55.19
-60
-66.09
-73.41
-81.35
-88.7
-93.88
-95.31
-91.76
-82.77
-68.75
-50.88
-30.88
-10.58
8.43
24.97
38.29
48.07
54.31
57.23
57.31
55.2
51.72
47.67
43.75
40.43
37.91
36.19
35.09
34.49
34.26
34.29
34.45
34.5
34.12
32.96
30.77
27.48
23.27
18.48
13.5
8.57
3.68
-1.39
-6.94
-13.1
-19.76
-26.46
-32.66
-37.94
-42.27
-46
-49.84
-54.55
-60.68
-68.32
-76.93
-85.38
-92.08
-95.37
-93.88
-86.94
-74.73
-58.25
-39.06
-18.93
0.54
18.1
32.89
44.49
52.73
57.67
59.57
58.85
56.14
52.19
47.82
43.77
40.58
38.47
37.37
37
36.99
36.97
36.65
35.81
34.33
32.15
29.24
25.65
21.45
16.8
11.82
6.61
1.18
-4.48
-10.41
-16.57
-22.84
-29.03
-35
-40.73
-46.32
-51.99
-58.02
-64.63
-71.85
-79.38
-86.52
-92.14
-94.82
-93.26
-86.62
-74.87
-58.78
-39.8
-19.66
0.04
18.01
33.38
45.59
54.36
59.62
61.58
60.73
57.84
53.8
49.47
45.57
42.54
40.56
39.58
39.37
39.61
39.92
39.92
39.33
37.93
35.62
32.46
28.57
24.13
19.26
14.06
8.58
2.87
-3.03
-9.01
-14.96
-20.77
-26.42
-32.02
-37.8
-44.05
-51.11
-59.17
-68.18
-77.61
-86.44
-93.19
-96.23
-94.22
-86.54
-73.52
-56.29
-36.55
-16.05
3.69
21.53
36.73
48.82
57.55
62.92
65.16
64.75
62.39
58.86
54.93
51.23
48.16
45.86
44.24
43.1
42.22
41.46
40.71
39.87
38.71
36.89
34.06
29.94
24.47
17.9
10.67
3.32
-3.69
-10.16
-16.19
-22.14
-28.51
-35.7
-43.91
-53
-62.47
-71.41
-78.64
-82.83
-82.75
-77.59
-67.23
-52.34
-34.27
-14.73
4.58
22.24
37.22
48.84
56.73
60.79
61.24
58.7
54.09
48.51
43
38.29
34.75
32.38
30.97
30.24
29.95
29.87
29.74
29.22
27.89
25.38
21.49
16.32
10.28
3.9
-2.29
-7.99
-13.26
-18.45
-24.1
-30.69
-38.42
-46.99
-55.58
-62.85
-67.36
-67.78
-63.34
-54
-40.45
-23.96
-6.08
11.61
27.72
41.12
51.09
57.25
59.67
58.76
55.25
50.05
44.15
38.42
33.6
30.08
27.93
26.93
26.63
26.52
26.12
25.07
23.13
20.16
16.15
11.22
5.59
-0.41
-6.42
-12.21
-17.68
-23.02
-28.58
-34.79
-41.95
-50.06
-58.57
-66.41
-72.08
-74.04
-71.15
-63.01
-50.14
-33.78
-15.58
2.77
19.84
34.52
46
53.77
57.68
57.95
55.28
50.69
45.31
40.16
35.89
32.73
30.54
29.01
27.79
26.66
25.55
24.46
23.39
22.17
20.52
18.1
14.65
10.06
4.51
-1.64
-7.95
-14.04
-19.7
-24.95
-30.04
-35.4
-41.55
-48.89
-57.48
-66.82
-75.75
-82.61
-85.57
-83.23
-75.02
-61.49
-44.06
-24.68
-5.25
12.66
28.03
40.22
48.89
53.88
55.26
53.5
49.42
44.18
38.97
34.81
32.22
31.17
31.23
31.75
32.15
32.07
31.42
30.29
28.74
26.79
24.29
21.04
16.91
11.88
6.13
-0.03
-6.26
-12.29
-18
-23.41
-28.73
-34.29
-40.47
-47.61
-55.8
-64.66
-73.31
-80.33
-84.13
-83.32
-77.11
-65.6
-49.73
-31.09
-11.46
7.5
24.44
38.4
48.8
55.33
58.03
57.33
54.06
49.34
44.37
40.16
37.24
35.66
35.05
34.86
34.59
33.95
32.85
31.33
29.45
27.21
24.57
21.5
17.95
13.86
9.17
3.83
-2.08
-8.33
-14.62
-20.59
-26.08
-31.16
-36.18
-41.65
-48.03
-55.52
-63.83
-72.15
-79.19
-83.46
-83.6
-78.76
-68.84
-54.6
-37.44
-19.09
-1.2
14.91
28.37
38.71
45.71
49.43
50.12
48.24
44.49
39.7
34.73
30.34
27.04
24.97
23.94
23.59
23.47
23.27
22.8
22.07
21.03
19.59
17.5
14.48
10.33
5.1
-0.91
-7.23
-13.41
-19.15
-24.47
-29.59
-34.84
-40.59
-47.1
-54.47
-62.57
-70.91
-78.58
-84.34
-86.76
-84.63
-77.3
-64.98
-48.75
-30.25
-11.31
6.44
21.81
34.07
42.85
48.04
49.79
48.55
45.07
40.34
35.36
30.91
27.41
24.94
23.32
22.34
21.81
21.58
21.44
21.04
20
17.95
14.68
10.24
4.92
-0.87
-6.7
-12.23
-17.36
-22.18
-26.98
-32.18
-38.22
-45.32
-53.4
-61.81
-69.41
-74.67
-76.11
-72.61
-63.86
-50.43
-33.64
-15.24
3.07
19.83
34.01
44.95
52.3
55.96
56.14
53.34
48.38
42.26
35.99
30.46
26.25
23.59
22.36
22.16
22.44
22.59
22.07
20.54
17.82
13.97
9.19
3.81
-1.88
-7.67
-13.54
-19.66
-26.36
-34
-42.75
-52.42
-62.22
-70.87
-76.75
-78.32
-74.56
-65.29
-51.27
-33.98
-15.2
3.4
20.43
34.94
46.28
54.03
57.98
58.21
55.14
49.59
42.67
35.58
29.4
24.8
21.99
20.68
20.28
20.03
19.22
17.4
14.38
10.26
5.27
-0.31
-6.26
-12.48
-18.99
-25.99
-33.77
-42.67
-52.87
-64.11
-75.42
-85.12
-91.13
-91.5
-85.08
-71.94
-53.38
-31.52
-8.74
12.93
32.01
47.61
59.24
66.75
70.23
70.08
67.01
61.95
55.91
49.81
44.31
39.84
36.55
34.37
33.06
32.18
31.17
29.43
26.46
22.02
16.13
9.08
1.27
-6.9
-15.17
-23.52
-32.18
-41.55
-52.06
-63.76
-76.12
-87.75
-96.61
-100.47
-97.56
-87.21
-70.08
-47.91
-23.07
2.14
25.88
46.87
64.31
77.7
86.74
91.38
91.98
89.31
84.5
78.85
73.51
69.28
66.47
64.89
64.07
63.37
62.25
60.34
57.55
53.94
49.68
44.93
39.75
34.06
27.71
20.52
12.41
3.4
-6.24
-16.18
-25.96
-35.23
-43.79
-51.73
-59.4
-67.47
-76.59
-87.21
-99.2
-111.54
-122.39
-129.36
-130.16
-123.28
-108.45
-86.77
-60.39
-31.89
-3.67
22.47
45.41
64.58
79.67
90.54
97.22
99.98
99.54
96.93
93.32
89.72
86.72
84.45
82.68
81.12
79.63
78.23
77.03
76.02
74.95
73.33
70.61
66.38
60.56
53.41
45.48
37.35
29.49
22.15
15.29
8.65
1.87
-5.36
-13.17
-21.45
-29.87
-37.97
-45.36
-51.91
-57.77
-63.41
-69.49
-76.67
-85.43
-95.81
-107.17
-118.08
-126.5
-130.11
-127.02
-116.33
-98.42
-74.92
-48.2
-20.73
5.44
28.87
48.69
64.47
76.01
83.37
86.9
87.21
85.2
81.83
78.09
74.72
72.26
70.85
70.35
70.43
70.66
70.71
70.38
69.57
68.2
66.11
63.05
58.74
53.08
46.24
38.64
30.89
23.51
16.76
10.61
4.77
-1.13
-7.38
-14.03
-20.98
-28.01
-34.86
-41.35
-47.4
-53.04
-58.42
-63.8
-69.6
-76.25
-84.12
-93.23
-103.02
-112.23
-119.03
-121.4
-117.68
-107.13
-90.19
-68.38
-43.86
-18.95
4.49
25.11
42.2
55.4
64.65
70.08
72.08
71.33
68.72
65.28
61.88
59.11
57.2
56.05
55.48
55.24
55.17
55.15
55.02
54.55
53.54
51.8
49.24
45.82
41.56
36.55
30.98
25.12
19.29
13.71
8.41
3.19
-2.24
-8.15
-14.63
-21.51
-28.41
-34.98
-40.94
-46.26
-51.1
-55.74
-60.53
-65.83
-72
-79.31
-87.74
-96.73
-105.03
-110.87
-112.36
-108
-97.32
-80.98
-60.64
-38.36
-16.08
4.74
23.17
38.57
50.44
58.33
62.17
62.33
59.78
55.78
51.61
48.13
45.71
44.29
43.57
43.3
43.32
43.56
43.94
44.3
44.38
43.91
42.61
40.3
36.89
32.47
27.27
21.65
16
10.58
5.43
0.42
-4.73
-10.26
-16.29
-22.71
-29.26
-35.57
-41.31
-46.35
-50.78
-54.99
-59.6
-65.19
-72.16
-80.41
-89.22
-97.29
-102.95
-104.63
-101.2
-92.33
-78.53
-60.98
-41.28
-21.05
-1.68
15.73
30.42
41.9
49.89
54.37
55.62
54.24
51.11
47.25
43.6
40.84
39.33
39.04
39.69
40.85
42.12
43.1
43.51
43.11
41.71
39.25
35.72
31.29
26.24
20.9
15.52
10.26
5.06
-0.25
-5.85
-11.86
-18.21
-24.73
-31.14
-37.28
-43.15
-49.01
-55.26
-62.29
-70.28
-78.92
-87.33
-94.17
-97.92
-97.27
-91.53
-80.81
-65.9
-48.12
-28.95
-9.75
8.34
24.36
37.54
47.29
53.27
55.55
54.58
51.28
46.81
42.39
39.02
37.26
37.12
38.13
39.51
40.53
40.64
39.65
37.69
35.04
31.94
28.52
24.75
20.53
15.75
10.37
4.44
-1.95
-8.68
-15.66
-22.82
-30.12
-37.54
-45.07
-52.84
-61
-69.65
-78.69
-87.58
-95.26
-100.3
-101.25
-97.05
-87.41
-72.94
-54.91
-34.97
-14.66
4.67
22.02
36.54
47.57
54.68
57.83
57.52
54.75
50.76
46.7
43.32
40.85
39.12
37.77
36.51
35.18
33.73
32.15
30.34
28.14
25.39
21.95
17.73
12.76
7.14
1.03
-5.31
-11.67
-17.91
-24.07
-30.4
-37.3
-45.24
-54.47
-64.78
-75.34
-84.66
-90.94
-92.55
-88.45
-78.6
-63.87
-45.77
-26.08
-6.39
11.99
28.07
41.08
50.48
55.98
57.68
56.19
52.49
47.75
42.98
38.85
35.72
33.72
32.94
33.4
34.84
36.63
37.72
37.01
33.81
28.16
20.81
12.9
5.35
-1.49
-7.86
-14.34
-21.52
-29.71
-38.97
-49.14
-59.78
-70.06
-78.7
-84.04
-84.48
-79.05
-67.78
-51.78
-32.91
-13.22
5.51
22.03
35.58
45.73
52.22
55.02
54.4
51.02
45.83
39.98
34.46
30.08
27.25
26
26.03
26.73
27.34
27.1
25.48
22.31
17.83
12.5
6.82
1.07
-4.77
-10.98
-17.93
-25.94
-35.17
-45.47
-56.39
-67.08
-76.22
-82.19
-83.42
-78.8
-68.13
-52.31
-33.13
-12.78
6.68
23.7
37.38
47.34
53.56
56.25
55.81
52.9
48.44
43.49
39.01
35.7
33.81
33.13
33.18
33.35
33.09
32.02
29.88
26.59
22.22
17.03
11.33
5.48
-0.3
-6.09
-12.19
-19.06
-27.16
-36.64
-47.14
-57.71
-66.83
-72.71
-73.7
-68.74
-57.78
-41.77
-22.46
-1.92
17.91
35.47
49.7
59.95
65.93
67.74
65.89
61.33
55.32
49.15
43.91
40.22
38.18
37.45
37.36
37.19
36.3
34.3
31.04
26.63
21.34
15.51
9.44
3.3
-2.89
-9.3
-16.27
-24.17
-33.27
-43.45
-54.07
-63.88
-71.24
-74.46
-72.27
-64.2
-50.73
-33.28
-13.8
5.62
23.22
37.79
48.75
55.98
59.66
60.17
58.02
53.87
48.6
43.18
38.48
35.09
33.05
31.94
31.02
29.57
27.14
23.67
19.44
14.92
10.42
6.05
1.62
-3.24
-8.91
-15.68
-23.72
-32.98
-43.16
-53.51
-62.81
-69.44
-71.74
-68.48
-59.32
-45.01
-27.17
-7.86
10.97
27.84
41.75
52.13
58.66
61.28
60.27
56.34
50.58
44.26
38.49
33.94
30.78
28.63
26.91
24.99
22.5
19.35
15.71
11.85
7.93
3.87
-0.62
-6
-12.65
-20.78
-30.27
-40.56
-50.65
-59.17
-64.57
-65.47
-61.07
-51.39
-37.35
-20.48
-2.51
14.97
30.78
44.03
54.08
60.43
62.83
61.47
57.02
50.66
43.73
37.43
32.48
29
26.67
24.87
22.95
20.48
17.27
13.41
9.12
4.66
0.16
-4.45
-9.41
-15.1
-21.89
-29.96
-39.16
-48.93
-58.26
-65.78
-70.02
-69.74
-64.26
-53.71
-39
-21.68
-3.55
13.69
28.66
40.43
48.46
52.67
53.35
51.13
46.9
41.6
36.11
31.1
26.96
23.84
21.61
20
18.6
16.95
14.67
11.54
7.52
2.7
-2.7
-8.48
-14.5
-20.7
-27.07
-33.7
-40.72
-48.33
-56.67
-65.59
-74.54
-82.38
-87.59
-88.59
-84.27
-74.39
-59.75
-41.93
-22.88
-4.45
11.98
25.53
35.71
42.33
45.43
45.37
42.9
39.09
35.08
31.73
29.4
27.94
26.9
25.96
25.05
24.4
24.27
24.66
25.14
25
23.51
20.31
15.53
9.71
3.52
-2.53
-8.28
-13.88
-19.67
-26.03
-33.27
-41.52
-50.6
-59.85
-68.14
-73.94
-75.7
-72.35
-63.64
-50.35
-33.98
-16.36
0.78
16.08
28.54
37.49
42.54
43.72
41.5
36.81
30.87
24.87
19.74
15.99
13.8
12.99
13.23
14.02
14.8
15
14.22
12.29
9.28
5.47
1.19
-3.34
-8.08
-13.1
-18.57
-24.72
-31.69
-39.46
-47.72
-55.75
-62.41
-66.3
-66.07
-60.94
-50.93
-37.02
-20.83
-4.19
11.31
24.61
35.19
42.85
47.58
49.4
48.49
45.24
40.36
34.75
29.25
24.37
20.23
16.68
13.57
10.92
8.94
7.81
7.45
7.38
6.86
5.17
1.9
-2.98
-9.23
-16.54
-24.69
-33.46
-42.42
-50.81
-57.53
-61.37
-61.4
-57.21
-48.98
-37.47
-23.7
-8.85
5.87
19.3
30.35
38.2
42.45
43.24
41.27
37.55
33.15
28.89
25.21
22.27
19.99
18.23
16.8
15.49
14.08
12.38
10.34
7.99
5.37
2.4
-1.18
-5.74
-11.65
-19.1
-27.85
-37.26
-46.28
-53.68
-58.29
-59.17
-55.9
-48.57
-37.83
-24.69
-10.36
3.92
17.08
28.21
36.66
42.02
44.17
43.34
40.09
35.21
29.61
24.14
19.4
15.76
13.26
11.66
10.51
9.3
7.56
5.05
1.72
-2.29
-6.77
-11.57
-16.7
-22.29
-28.59
-35.89
-44.35
-53.83
-63.8
-73.13
-80.27
-83.57
-81.62
-73.81
-60.46
-42.76
-22.5
-1.57
18.33
35.91
50.26
60.88
67.52
70.28
69.59
66.2
61.06
55.15
49.34
44.19
39.92
36.47
33.62
31.12
28.68
26.05
22.92
18.92
13.69
6.98
-1.28
-10.87
-21.32
-32.01
-42.39
-52.08
-61.05
-69.53
-77.87
-86.28
-94.72
-102.88
-110.13
-115.68
-118.66
-118.2
-113.66
-104.65
-91.18
-73.59
-52.37
-27.97
-0.75
28.84
59.93
91
119.85
144.05
161.55
171.39
174.05
171.24
165.26
158.15
151.07
144.18
136.94
128.78
119.65
110.22
101.61
94.86
90.4
87.79
85.89
83.29
78.73
71.5
61.43
48.95
34.82
20.01
5.55
-7.61
-18.75
-27.53
-34.02
-38.69
-42.33
-45.86
-50.08
-55.46
-62.04
-69.44
-76.94
-83.84
-89.61
-94.16
-97.82
-101.35
-105.61
-111.27
-118.44
-126.37
-133.47
-137.61
-136.68
-129.19
-114.76
-94.24
-69.49
-42.81
-16.42
8.04
29.68
48.26
63.91
76.79
86.9
93.99
97.85
98.53
96.54
92.89
88.78
85.33
83.31
83.05
84.47
87.25
90.95
95
98.77
101.66
103.39
104.54
106.82
112.79
125.04
144.8
170.94
199.72
225.78
243.78
250.13
243.96
226.88
201.97
172.36
140.34
107.19
73.44
39.35
5.04
-29.63
-65.37
-103.42
-144.94
-190.09
-237.19
-282.53
-321.22
-348.76
-362.46
-362.26
-350.19
-329.2
-301.88
-269.96
-234.6
-197.23
-160.07
-125.93
-97.4
-75.92
-61.38
-52.38
-46.98
-43.48
-40.79
-38.42
-36.16
-33.74
-30.76
-26.75
-21.4
-14.73
-7.13
0.76
8.22
14.74
20.05
24.13
27.13
29.18
30.38
30.78
30.41
29.41
27.99
26.34
24.59
22.71
20.51
17.7
14.07
9.51
4.16
-1.61
-7.27
-12.33
-16.49
-19.85
-22.93
-26.53
-31.43
-38.04
-46.06
-54.43
-61.58
-65.72
-65.49
-60.2
-50.02
-35.89
-19.21
-1.58
15.55
30.99
43.89
53.75
60.41
64.09
65.22
64.49
62.59
60.12
57.5
54.97
52.62
50.5
48.65
47.14
46.02
45.24
44.63
43.98
43.03
41.61
39.65
37.23
34.46
31.43
28.18
24.69
20.95
16.99
12.9
8.72
4.5
0.18
-4.28
-8.88
-13.55
-18.15
-22.59
-26.88
-31.12
-35.5
-40.18
-45.35
-51.13
-57.59
-64.6
-71.75
-78.14
-82.57
-83.73
-80.6
-72.81
-60.74
-45.43
-28.28
-10.75
5.94
20.75
32.98
42.11
47.92
50.52
50.35
48.14
44.76
41.04
37.63
34.86
32.82
31.43
30.49
29.84
29.33
28.87
28.38
27.74
26.85
25.55
23.72
21.29
18.29
14.88
11.27
7.62
4.06
0.56
-2.92
-6.49
-10.23
-14.21
-18.43
-22.88
-27.49
-32.05
-36.37
-40.29
-43.83
-47.2
-50.77
-54.93
-59.89
-65.48
-71.17
-75.97
-78.72
-78.29
-73.89
-65.3
-52.93
-37.78
-21.21
-4.67
10.51
23.37
33.28
40.02
43.66
44.51
43.09
40.1
36.26
32.31
28.83
26.22
24.62
23.98
24.13
24.81
25.76
26.79
27.67
28.19
28.15
27.4
25.87
23.63
20.85
17.74
14.49
11.15
7.7
4.05
0.14
-4
-8.24
-12.46
-16.63
-20.83
-25.25
-30.16
-35.77
-42.09
-48.87
-55.46
-60.92
-64.15
-64.18
-60.4
-52.73
-41.64
-28
-12.96
2.28
16.5
28.62
37.79
43.52
45.77
44.98
41.91
37.45
32.47
27.65
23.5
20.3
18.19
17.12
16.83
16.9
16.87
16.33
15.01
12.91
10.15
6.87
3.15
-0.97
-5.45
-10.22
-15.2
-20.44
-26.11
-32.59
-40.13
-48.65
-57.48
-65.39
-70.9
-72.65
-69.83
-62.35
-50.78
-36.2
-19.89
-3.22
12.56
26.33
37.25
44.74
48.59
48.89
46.13
41.06
34.63
27.87
21.74
16.84
13.35
10.97
9.18
7.41
5.3
2.73
-0.2
-3.36
-6.67
-10.21
-14.19
-18.94
-24.84
-32.22
-41.21
-51.51
-62.27
-72.11
-79.32
-82.36
-80.15
-72.42
-59.67
-42.99
-23.83
-3.76
15.72
33.23
47.64
58.12
64.27
66.19
64.41
59.86
53.69
47.01
40.75
35.51
31.48
28.48
26.15
24.03
21.73
19.03
15.85
12.16
7.89
2.9
-3.07
-10.34
-19.19
-29.7
-41.66
-54.38
-66.69
-77
-83.59
-85.04
-80.47
-69.89
-54.1
-34.51
-12.82
9.31
30.33
48.95
64.08
74.92
81.02
82.44
79.75
73.96
66.34
58.17
50.55
44.15
39.23
35.62
32.79
30.11
27
23.1
18.36
12.96
7.19
1.24
-4.9
-11.44
-18.79
-27.42
-37.7
-49.71
-62.98
-76.26
-87.59
-94.55
-94.93
-87.4
-71.98
-50.09
-24.2
2.87
28.59
51.06
69.11
82.21
90.26
93.54
92.62
88.36
81.8
74.04
66.08
58.74
52.6
47.96
44.84
42.96
41.72
40.39
38.24
34.69
29.52
22.83
14.99
6.5
-2.23
-10.9
-19.48
-28.25
-37.72
-48.49
-60.91
-74.65
-88.35
-99.69
-105.86
-104.34
-93.78
-74.51
-48.53
-18.9
11.03
38.4
61.27
78.65
90.29
96.46
97.77
95.11
89.67
82.78
75.75
69.6
64.86
61.54
59.21
57.25
55.16
52.68
49.83
46.74
43.47
39.83
35.43
29.81
22.76
14.45
5.42
-3.59
-11.97
-19.4
-26.03
-32.36
-39.12
-47.09
-56.82
-68.43
-81.3
-93.87
-103.85
-108.6
-105.93
-94.8
-75.7
-50.58
-22.25
6.33
32.63
54.88
71.98
83.46
89.32
90
86.46
80.09
72.46
65.1
59.07
54.84
52.32
50.98
50.17
49.34
48.15
46.47
44.25
41.39
37.66
32.8
26.63
19.23
10.98
2.52
-5.5
-12.62
-18.81
-24.54
-30.64
-38.02
-47.32
-58.5
-70.68
-82.06
-90.29
-93.06
-88.69
-76.68
-57.89
-34.39
-8.87
15.95
37.82
55.32
67.77
75.13
77.7
76.09
71.09
63.68
55.02
46.31
38.62
32.71
28.89
26.99
26.43
26.34
25.87
24.4
21.65
17.72
13
7.9
2.7
-2.54
-8.01
-14.03
-20.88
-28.76
-37.7
-47.42
-57.26
-66.04
-72.17
-73.97
-70.08
-60.01
-44.41
-24.91
-3.78
16.69
34.63
48.82
58.64
63.93
64.83
61.8
55.6
47.35
38.4
30.1
23.52
19.15
16.9
16.13
15.9
15.31
13.74
11.03
7.4
3.29
-0.91
-5.01
-9.16
-13.7
-19.05
-25.59
-33.52
-42.76
-52.85
-62.83
-71.27
-76.48
-76.88
-71.53
-60.44
-44.68
-26.08
-6.76
11.33
26.76
38.6
46.38
49.91
49.35
45.2
38.44
30.35
22.35
15.57
10.71
7.82
6.48
5.98
5.63
4.94
3.65
1.71
-0.88
-4.08
-7.9
-12.35
-17.44
-23.18
-29.66
-37
-45.29
-54.38
-63.65
-71.91
-77.54
-78.89
-74.83
-65.21
-50.91
-33.63
-15.32
2.22
17.68
30.15
39.11
44.22
45.42
43.02
37.79
30.91
23.71
17.4
12.77
9.98
8.72
8.37
8.27
7.89
6.95
5.31
2.99
-0
-3.65
-7.91
-12.74
-18.08
-23.88
-30.23
-37.19
-44.77
-52.7
-60.21
-66.13
-69.07
-67.77
-61.58
-50.64
-35.93
-18.98
-1.54
14.76
28.61
39.12
45.77
48.41
47.34
43.2
37.01
30
23.36
18.02
14.43
12.54
11.82
11.51
10.92
9.62
7.54
4.87
1.85
-1.4
-5.02
-9.28
-14.5
-20.89
-28.45
-37.02
-46.12
-54.97
-62.5
-67.36
-68.29
-64.41
-55.55
-42.37
-26.2
-8.74
8.37
23.7
36.23
45.23
50.32
51.46
49.05
43.9
37.15
30.06
23.7
18.76
15.44
13.47
12.3
11.27
9.86
7.74
4.87
1.42
-2.37
-6.31
-10.38
-14.77
-19.82
-25.92
-33.36
-42.08
-51.52
-60.59
-67.75
-71.34
-70.07
-63.37
-51.58
-35.91
-18.03
0.27
17.43
32.24
43.87
51.77
55.75
55.88
52.68
46.92
39.63
31.85
24.58
18.54
14.16
11.36
9.64
8.18
6.11
2.8
-1.91
-7.76
-14.24
-20.88
-27.41
-33.8
-40.13
-46.49
-53.03
-59.88
-67.16
-74.68
-81.83
-87.35
-89.62
-87.01
-78.46
-63.82
-43.91
-20.22
5.48
31.5
56.38
78.83
97.63
111.72
120.29
123.05
120.4
113.38
103.47
92.23
80.95
70.46
61.18
53.26
46.7
41.4
37.17
33.59
30.08
25.91
20.48
13.47
4.91
-4.74
-14.83
-24.69
-33.89
-42.36
-50.48
-58.9
-68.36
-79.28
-91.51
-104.1
-115.4
-123.34
-125.99
-122.11
-111.51
-95.06
-74.5
-51.88
-29.15
-7.82
10.97
26.47
38.22
45.99
49.95
50.7
49.27
46.98
45.13
44.74
46.25
49.43
53.56
57.75
61.37
64.3
66.96
69.99
73.87
78.54
83.46
87.78
90.76
91.93
91.2
88.66
84.42
78.59
71.28
62.67
52.93
42.19
30.47
17.76
4.13
-10.13
-24.62
-39.01
-53.3
-67.81
-82.86
-98.3
-113.14
-125.55
-133.33
-134.64
-128.67
-115.92
-97.93
-76.76
-54.37
-32.29
-11.5
7.34
23.69
37.08
47.09
53.57
56.8
57.46
56.52
55.02
53.72
53.01
52.83
52.9
52.94
52.86
52.81
53.04
53.71
54.73
55.68
55.99
55.11
52.73
48.9
43.94
38.35
32.63
27.08
21.79
16.56
11.06
4.96
-1.94
-9.55
-17.56
-25.47
-32.83
-39.35
-45.02
-50.08
-54.93
-60.05
-65.93
-72.96
-81.39
-91.04
-101.17
-110.36
-116.72
-118.32
-113.75
-102.62
-85.64
-64.45
-41.17
-17.9
3.74
22.61
38.15
50.11
58.54
63.57
65.54
64.97
62.55
59.15
55.66
52.83
51.08
50.42
50.52
50.89
51.11
50.91
50.27
49.23
47.82
45.92
43.34
39.86
35.41
30.11
24.25
18.19
12.24
6.54
1.02
-4.5
-10.22
-16.27
-22.65
-29.2
-35.74
-42.02
-47.89
-53.32
-58.43
-63.54
-69.12
-75.61
-83.25
-91.82
-100.58
-108.23
-113.21
-114.03
-109.67
-99.84
-85.06
-66.53
-45.84
-24.69
-4.58
13.31
28.19
39.63
47.49
51.93
53.37
52.46
50.03
46.95
43.97
41.65
40.21
39.64
39.73
40.26
40.99
41.78
42.46
42.84
42.67
41.66
39.57
36.34
32.1
27.16
21.9
16.73
11.88
7.39
3.1
-1.25
-5.91
-11.04
-16.63
-22.54
-28.53
-34.35
-39.77
-44.69
-49.12
-53.26
-57.47
-62.23
-67.94
-74.66
-81.86
-88.33
-92.39
-92.43
-87.35
-76.98
-62.14
-44.33
-25.31
-6.68
10.37
25.07
37
46.02
52.16
55.6
56.55
55.26
52.03
47.31
41.79
36.44
32.38
30.71
32.3
37.42
45.62
55.66
65.68
73.66
77.88
77.47
72.56
64.16
53.67
42.38
31.13
20.24
9.73
-0.4
-10.02
-18.94
-27
-34.22
-40.77
-46.99
-53.17
-59.54
-66.25
-73.32
-80.58
-87.6
-93.59
-97.39
-97.75
-93.58
-84.4
-70.49
-52.95
-33.33
-13.34
5.59
22.37
36.28
46.84
53.78
57.1
57.13
54.6
50.53
46.03
41.99
38.9
36.87
35.64
34.87
34.28
33.7
33.07
32.3
31.23
29.64
27.3
24.13
20.15
15.49
10.25
4.5
-1.77
-8.55
-15.73
-23.07
-30.31
-37.27
-43.9
-50.41
-57.13
-64.41
-72.53
-81.48
-90.85
-99.71
-106.71
-110.25
-108.9
-101.86
-89.14
-71.7
-51.11
-29.16
-7.47
12.71
30.52
45.34
56.74
64.45
68.4
68.9
66.64
62.57
57.75
53.12
49.28
46.49
44.65
43.46
42.54
41.58
40.42
39.11
37.73
36.35
34.85
32.92
30.06
25.79
19.86
12.33
3.7
-5.37
-14.23
-22.56
-30.37
-38.05
-46.13
-55.06
-65.09
-76.06
-87.34
-97.86
-106.15
-110.59
-109.85
-103.15
-90.63
-73.29
-52.75
-30.76
-8.86
11.9
30.88
47.62
61.66
72.49
79.7
83.23
83.48
81.29
77.68
73.5
69.32
65.27
61.29
57.29
53.29
49.42
45.81
42.43
39.02
35.18
30.46
24.59
17.54
9.58
1.21
-7.05
-14.79
-21.84
-28.37
-34.8
-41.66
-49.46
-58.51
-68.75
-79.65
-90.12
-98.6
-103.38
-102.93
-96.38
-83.76
-66.04
-44.84
-22.06
0.52
21.48
39.74
54.53
65.29
71.77
74.05
72.74
68.84
63.59
58.17
53.45
49.79
47.16
45.27
43.79
42.47
41.18
39.79
38.09
35.81
32.61
28.24
22.68
16.08
8.8
1.26
-6.2
-13.41
-20.45
-27.69
-35.64
-44.82
-55.5
-67.45
-79.75
-90.84
-98.76
-101.67
-98.34
-88.54
-73.1
-53.63
-32.09
-10.3
10.27
28.53
43.65
54.98
62.09
64.94
63.99
60.25
54.97
49.38
44.37
40.42
37.61
35.79
34.72
34.15
33.79
33.32
32.38
30.62
27.8
23.79
18.66
12.62
5.99
-0.87
-7.66
-14.24
-20.66
-27.22
-34.41
-42.67
-52.2
-62.64
-72.91
-81.32
-85.9
-85
-77.81
-64.63
-46.77
-26.14
-4.79
15.52
33.48
48.13
58.86
65.32
67.49
65.85
61.33
55.19
48.78
43.16
38.96
36.29
34.87
34.24
33.91
33.51
32.71
31.21
28.71
25
20.07
14.17
7.73
1.21
-5.09
-11.17
-17.24
-23.72
-31.03
-39.41
-48.79
-58.55
-67.49
-73.91
-76.05
-72.53
-62.86
-47.7
-28.62
-7.75
12.77
31.22
46.37
57.55
64.48
67.25
66.26
62.24
56.21
49.32
42.68
37.14
33.16
30.73
29.54
29
28.55
27.69
26.06
23.48
19.89
15.36
10.05
4.21
-1.94
-8.23
-14.65
-21.4
-28.8
-37.21
-46.76
-57.06
-67.08
-75.21
-79.68
-78.96
-72.28
-59.84
-42.74
-22.64
-1.46
19.04
37.34
52.3
63.14
69.55
71.68
70.18
66.06
60.48
54.5
48.9
44.08
40.12
36.84
34.04
31.54
29.22
26.96
24.62
22
18.81
14.78
9.74
3.68
-3.21
-10.6
-18.12
-25.49
-32.62
-39.66
-47.04
-55.32
-64.96
-76.07
-88.08
-99.6
-108.6
-112.86
-110.64
-101.22
-85.13
-64.03
-40.11
-15.57
7.85
29.01
47.15
61.75
72.42
78.94
81.46
80.62
77.45
73.17
68.84
65.11
62.22
60.02
58.21
56.47
54.57
52.3
49.55
46.22
42.25
37.68
32.52
26.82
20.58
13.82
6.55
-1.13
-9.05
-17.02
-24.81
-32.31
-39.48
-46.49
-53.69
-61.6
-70.73
-81.41
-93.39
-105.64
-116.34
-123.27
-124.36
-118.32
-105.1
-85.83
-62.44
-37.12
-11.82
12.03
33.44
51.69
66.25
76.76
83.17
85.86
85.62
83.45
80.43
77.37
74.74
72.65
70.97
69.43
67.85
66.16
64.38
62.58
60.75
58.71
56.16
52.75
48.24
42.64
36.24
29.48
22.8
16.47
10.51
4.7
-1.34
-7.89
-15.15
-23.07
-31.36
-39.6
-47.34
-54.28
-60.37
-65.86
-71.24
-77.16
-84.21
-92.81
-102.85
-113.53
-123.28
-129.96
-131.43
-126.12
-113.62
-94.76
-71.36
-45.69
-19.84
4.57
26.48
45.17
60.19
71.19
78.14
81.32
81.41
79.37
76.23
72.94
70.16
68.21
67.04
66.42
66.01
65.54
64.88
63.96
62.74
61.09
58.73
55.36
50.79
44.99
38.2
30.82
23.29
15.95
8.98
2.36
-4.04
-10.38
-16.79
-23.32
-29.96
-36.64
-43.21
-49.55
-55.53
-61.14
-66.44
-71.67
-77.23
-83.61
-91.22
-100.11
-109.74
-118.84
-125.59
-128.02
-124.59
-114.66
-98.64
-77.87
-54.21
-29.6
-5.69
16.24
35.26
50.74
62.25
69.67
73.24
73.59
71.64
68.45
65.04
62.13
60.07
58.88
58.29
57.92
57.39
56.48
55.12
53.37
51.31
48.97
46.24
42.92
38.84
33.93
28.36
22.43
16.44
10.58
4.85
-0.94
-7.01
-13.49
-20.32
-27.27
-34.04
-40.34
-46.03
-51.13
-55.85
-60.55
-65.67
-71.63
-78.69
-86.74
-95.1
-102.53
-107.35
-107.81
-102.56
-91.07
-73.79
-52.12
-28.04
-3.7
19
38.6
54.22
65.45
72.32
75.19
74.76
71.95
67.82
63.38
59.43
56.47
54.55
53.48
52.92
52.52
52.07
51.39
50.36
48.78
46.5
43.37
39.37
34.62
29.31
23.71
18.01
12.3
6.54
0.56
-5.79
-12.62
-19.82
-27.12
-34.13
-40.49
-46.12
-51.26
-56.4
-62.18
-69.11
-77.34
-86.6
-96.06
-104.47
-110.31
-112.03
-108.52
-99.3
-84.7
-65.74
-43.94
-20.99
1.44
21.9
39.22
52.59
61.67
66.64
68.13
67.06
64.36
60.78
56.84
52.86
49.12
45.89
43.48
42.04
41.58
41.78
42.1
41.88
40.41
37.16
31.85
24.72
16.69
9.35
4.6
4
8.04
15.75
24.85
32.39
35.79
33.64
26.01
14.11
-0.31
-15.71
-31.08
-45.97
-60.24
-73.82
-86.55
-98.1
-108
-115.53
-119.87
-120.08
-115.38
-105.37
-90.24
-70.86
-48.63
-25.26
-2.43
18.34
35.89
49.42
58.6
63.54
64.82
63.35
60.24
56.53
53
50.09
47.9
46.36
45.33
44.76
44.62
44.86
45.27
45.49
44.97
43.27
40.22
35.99
31
25.75
20.55
15.37
9.91
3.76
-3.38
-11.5
-20.33
-29.39
-38.18
-46.33
-53.65
-60.21
-66.32
-72.52
-79.45
-87.59
-96.99
-106.99
-116.18
-122.66
-124.48
-120.3
-109.71
-93.32
-72.56
-49.19
-24.97
-1.43
20.18
38.81
53.65
64.19
70.36
72.55
71.55
68.39
64.15
59.74
55.86
52.93
51.12
50.35
50.35
50.7
50.97
50.72
49.61
47.46
44.18
39.83
34.53
28.43
21.7
14.45
6.77
-1.2
-9.27
-17.23
-24.87
-32.11
-39.07
-46.05
-53.54
-62.01
-71.74
-82.56
-93.69
-103.77
-110.99
-113.54
-110.07
-100.03
-83.96
-63.29
-40
-16.12
6.62
26.94
44.01
57.25
66.31
71.06
71.83
69.37
64.89
59.74
55.09
51.63
49.45
48.2
47.34
46.42
45.2
43.68
41.94
39.97
37.64
34.68
30.78
25.65
19.24
11.7
3.44
-5.04
-13.29
-21.02
-28.22
-35.15
-42.27
-50.14
-59.25
-69.75
-81.33
-92.98
-103.02
-109.39
-110.18
-104.11
-91.04
-72.01
-48.9
-23.95
0.77
23.64
43.51
59.61
71.38
78.53
81.13
79.76
75.55
69.97
64.46
60.12
57.36
56.01
55.48
55.08
54.35
53.11
51.41
49.33
46.86
43.78
39.79
34.55
27.95
20.12
11.47
2.56
-6.09
-14.17
-21.72
-29.07
-36.79
-45.44
-55.43
-66.73
-78.74
-90.19
-99.3
-104.08
-102.86
-94.75
-79.96
-59.68
-35.83
-10.56
14.12
36.54
55.42
69.85
79.32
83.72
83.52
79.66
73.48
66.38
59.61
54
49.86
47.05
45.14
43.68
42.27
40.75
39.07
37.2
34.99
32.15
28.3
23.19
16.73
9.16
0.99
-7.15
-14.72
-21.5
-27.62
-33.62
-40.22
-48.12
-57.73
-68.85
-80.59
-91.35
-99.1
-101.8
-97.94
-86.92
-69.29
-46.69
-21.43
3.87
26.89
45.85
59.74
68.3
71.9
71.39
67.84
62.48
56.43
50.65
45.79
42.1
39.52
37.74
36.4
35.2
33.98
32.61
30.93
28.65
25.44
20.99
15.24
8.41
0.95
-6.59
-13.83
-20.69
-27.47
-34.73
-43.1
-53.03
-64.43
-76.57
-87.95
-96.58
-100.35
-97.62
-87.73
-71.27
-49.94
-26.15
-2.33
19.53
38.24
53.2
64.31
71.55
75.03
74.98
71.9
66.62
60.22
53.74
47.99
43.33
39.77
37
34.59
32.14
29.29
25.75
21.33
15.96
9.72
2.82
-4.46
-11.9
-19.42
-27.16
-35.41
-44.56
-54.83
-66.06
-77.42
-87.45
-94.18
-95.7
-90.66
-78.82
-61.12
-39.49
-16.31
6.16
26.2
42.72
55.18
63.37
67.33
67.33
63.94
58.11
51.05
44.06
38.2
34.02
31.42
29.77
28.19
25.89
22.48
18.05
12.97
7.7
2.46
-2.87
-8.69
-15.51
-23.77
-33.68
-45.06
-57.33
-69.37
-79.65
-86.36
-87.85
-83.02
-71.68
-54.72
-33.82
-11.14
11.21
31.42
48.18
60.65
68.39
71.37
70.03
65.29
58.39
50.8
43.77
38.13
34.12
31.42
29.38
27.25
24.45
20.7
16.04
10.69
4.91
-1.12
-7.39
-14.1
-21.54
-30.04
-39.84
-50.92
-62.79
-74.39
-84.11
-90.03
-90.5
-84.62
-72.55
-55.57
-35.62
-14.81
5.05
22.64
37.06
47.65
53.99
55.96
53.95
48.92
42.22
35.3
29.27
24.65
21.45
19.25
17.49
15.65
13.37
10.45
6.83
2.58
-2.16
-7.23
-12.54
-18.14
-24.22
-31.1
-39.12
-48.46
-58.93
-69.79
-79.7
-86.86
-89.42
-86
-76.12
-60.44
-40.57
-18.67
3.07
22.82
39.29
51.71
59.74
63.37
62.94
59.17
53.14
46.15
39.47
34.07
30.37
28.2
26.89
25.63
23.72
20.86
17.12
12.83
8.32
3.8
-0.8
-5.69
-11.12
-17.38
-24.66
-33.09
-42.56
-52.56
-62.06
-69.5
-73.13
-71.46
-63.78
-50.39
-32.51
-11.95
9.36
29.73
47.84
62.71
73.62
80.05
81.88
79.48
73.78
66.14
58.04
50.71
44.85
40.49
37.11
34.04
30.7
26.85
22.58
18.11
13.57
8.78
3.37
-3.17
-11.18
-20.79
-31.8
-43.75
-55.88
-67.14
-76.2
-81.64
-82.17
-76.99
-66.11
-50.37
-31.34
-10.97
8.85
26.7
41.73
53.61
62.26
67.65
69.65
68.33
64.13
58.06
51.49
45.66
41.19
37.81
34.61
30.65
25.51
19.52
13.43
7.88
2.88
-2.23
-8.37
-16.26
-26.01
-37.17
-49.04
-60.79
-71.68
-80.84
-87.21
-89.65
-87.23
-79.57
-67.07
-50.8
-32.27
-13.07
5.3
21.53
34.54
43.56
48.23
48.77
45.9
40.72
34.45
28.15
22.58
18.1
14.7
12.11
9.89
7.66
5.22
2.58
-0.08
-2.63
-5.15
-8
-11.79
-17.11
-24.37
-33.43
-43.55
-53.36
-61.1
-64.97
-63.6
-56.42
-43.78
-26.89
-7.5
12.52
31.46
47.97
61.13
70.32
75.29
76.15
73.43
68.08
61.31
54.36
48.24
43.51
40.21
37.9
35.88
33.45
30.11
25.67
20.23
14.03
7.36
0.43
-6.72
-14.23
-22.42
-31.69
-42.38
-54.38
-66.96
-78.56
-87.17
-90.71
-87.65
-77.49
-60.82
-39.1
-14.24
11.68
36.68
58.89
76.7
88.91
95.04
95.5
91.53
84.85
77.23
70.02
63.95
59.09
55.11
51.52
47.92
44.08
39.95
35.59
31
26.11
20.71
14.55
7.42
-0.68
-9.56
-18.82
-27.97
-36.63
-44.57
-51.86
-58.85
-66.13
-74.37
-84.1
-95.3
-107.16
-118.04
-125.65
-127.65
-122.29
-108.97
-88.38
-62.35
-33.29
-3.67
24.42
49.49
70.58
87.2
99.2
106.75
110.27
110.41
107.96
103.79
98.71
93.43
88.48
84.17
80.68
77.99
75.95
74.32
72.75
70.9
68.39
64.97
60.52
55.11
48.91
42.16
35.07
27.76
20.35
12.93
5.63
-1.42
-8.13
-14.52
-20.71
-26.94
-33.41
-40.21
-47.27
-54.37
-61.22
-67.62
-73.55
-79.2
-84.93
-91.22
-98.56
-107.32
-117.54
-128.67
-139.42
-147.83
-151.58
-148.66
-137.97
-119.69
-95.27
-66.93
-37.09
-7.83
19.33
43.47
64.04
80.64
93.05
101.24
105.45
106.27
104.56
101.23
97.07
92.62
88.16
83.87
79.9
76.45
73.69
71.63
70.02
68.44
66.41
63.57
59.78
55.1
49.7
43.79
37.53
31.04
24.39
17.58
10.66
3.72
-3.06
-9.38
-15
-19.84
-24.1
-28.2
-32.64
-37.72
-43.4
-49.38
-55.2
-60.57
-65.5
-70.31
-75.51
-81.66
-89.08
-97.76
-107.1
-115.91
-122.45
-124.78
-121.26
-111.05
-94.42
-72.72
-48.01
-22.54
1.75
23.46
41.81
56.47
67.38
74.71
78.75
79.94
78.9
76.33
72.96
69.35
65.9
62.8
60.12
57.87
56.04
54.62
53.5
52.49
51.34
49.77
47.61
44.74
41.18
36.99
32.3
27.22
21.88
16.38
10.77
5.13
-0.5
-6.07
-11.55
-16.99
-22.41
-27.87
-33.38
-38.87
-44.22
-49.29
-54.05
-58.55
-63
-67.76
-73.18
-79.55
-86.85
-94.62
-101.83
-106.99
-108.47
-104.94
-95.82
-81.49
-63.22
-42.82
-22.18
-2.88
14.01
27.92
38.64
46.24
50.92
53.04
53.13
51.81
49.7
47.36
45.14
43.24
41.69
40.47
39.56
38.97
38.64
38.44
38.11
37.34
35.88
33.63
30.71
27.37
23.9
20.45
17.01
13.46
9.63
5.53
1.26
-3.02
-7.17
-11.17
-15.09
-19.05
-23.14
-27.35
-31.67
-36.06
-40.52
-45.02
-49.53
-54.03
-58.54
-63.23
-68.33
-74.06
-80.34
-86.64
-91.92
-94.8
-93.96
-88.54
-78.42
-64.28
-47.41
-29.38
-11.73
4.29
17.74
28.11
35.17
39.04
40.06
38.84
36.1
32.58
28.97
25.75
23.24
21.53
20.6
20.3
20.44
20.81
21.22
21.55
21.7
21.64
21.34
20.71
19.62
17.93
15.59
12.65
9.32
5.85
2.47
-0.73
-3.82
-6.92
-10.16
-13.63
-17.31
-21.16
-25.06
-28.92
-32.66
-36.21
-39.58
-42.83
-46.16
-49.82
-54.13
-59.25
-65
-70.71
-75.26
-77.3
-75.67
-69.7
-59.51
-45.9
-30.14
-13.65
2.26
16.54
28.39
37.28
42.93
45.39
45.03
42.52
38.73
34.53
30.66
27.6
25.55
24.49
24.21
24.47
25.06
25.77
26.44
26.88
26.86
26.19
24.73
22.44
19.42
15.9
12.21
8.63
5.35
2.35
-0.54
-3.56
-6.97
-10.9
-15.32
-20.06
-24.86
-29.48
-33.74
-37.62
-41.31
-45.15
-49.62
-55.05
-61.5
-68.54
-75.24
-80.31
-82.42
-80.52
-74.06
-63.11
-48.32
-30.76
-11.83
7
24.28
38.73
49.45
55.98
58.46
57.53
54.19
49.56
44.63
40.11
36.34
33.44
31.34
29.97
29.23
29.01
29.08
29.14
28.8
27.75
25.82
23.03
19.52
15.51
11.2
6.76
2.3
-2.14
-6.59
-11.11
-15.84
-20.9
-26.36
-32.2
-38.25
-44.37
-50.49
-56.76
-63.47
-70.98
-79.44
-88.55
-97.42
-104.67
-108.61
-107.73
-101.1
-88.59
-70.96
-49.67
-26.54
-3.38
18.21
36.99
52.1
63.04
69.64
72.17
71.25
67.75
62.66
56.86
51.05
45.69
41.07
37.39
34.73
33.06
32.17
31.72
31.24
30.28
28.47
25.59
21.55
16.39
10.27
3.45
-3.77
-11.08
-18.32
-25.53
-32.99
-41.14
-50.44
-61.02
-72.51
-83.84
-93.38
-99.2
-99.61
-93.55
-80.9
-62.55
-40.11
-15.59
8.94
31.66
51.12
66.32
76.76
82.42
83.72
81.47
76.64
70.25
63.25
56.39
50.21
45.07
41.08
38.18
36.14
34.64
33.28
31.65
29.41
26.25
21.98
16.6
10.25
3.26
-4.02
-11.27
-18.41
-25.66
-33.48
-42.4
-52.68
-64.02
-75.35
-84.87
-90.46
-90.17
-82.88
-68.56
-48.39
-24.38
1.08
25.7
47.61
65.47
78.54
86.51
89.61
88.45
83.99
77.43
69.95
62.6
56.08
50.78
46.73
43.77
41.58
39.87
38.38
36.87
35.09
32.76
29.53
25.2
19.72
13.3
6.35
-0.66
-7.41
-13.89
-20.44
-27.64
-36.18
-46.54
-58.69
-71.91
-84.66
-94.84
-100.19
-98.91
-90.17
-74.38
-53.06
-28.46
-3.04
21.02
41.99
58.68
70.41
76.91
78.47
75.84
70.27
63.19
55.96
49.58
44.53
40.85
38.28
36.49
35.23
34.33
33.68
33.09
32.28
30.86
28.43
24.69
19.56
13.27
6.27
-0.87
-7.66
-13.92
-19.81
-25.78
-32.45
-40.29
-49.49
-59.71
-70.01
-78.88
-84.49
-85.11
-79.55
-67.56
-49.93
-28.33
-4.92
18.07
38.74
55.66
67.97
75.33
77.9
76.31
71.55
64.83
57.34
50.1
43.75
38.61
34.68
31.82
29.82
28.47
27.52
26.64
25.45
23.53
20.52
16.29
10.94
4.78
-1.72
-8.14
-14.21
-19.93
-25.58
-31.66
-38.72
-47.12
-56.68
-66.5
-75.01
-80.29
-80.56
-74.71
-62.65
-45.37
-24.61
-2.45
19.1
38.43
54.32
65.99
73
75.33
73.41
68.15
60.8
52.76
45.28
39.25
34.99
32.33
30.72
29.56
28.38
26.99
25.39
23.64
21.61
19.01
15.38
10.39
4.02
-3.39
-11.2
-18.76
-25.65
-31.84
-37.64
-43.65
-50.49
-58.61
-68.04
-78.24
-87.92
-95.24
-98.19
-95.08
-85.18
-68.93
-47.88
-24.27
-0.43
21.65
40.6
55.59
66.2
72.34
74.22
72.37
67.7
61.34
54.53
48.25
43.19
39.59
37.3
35.97
35.17
34.48
33.6
32.36
30.66
28.52
25.91
22.75
18.94
14.36
8.88
2.52
-4.56
-12.06
-19.55
-26.69
-33.29
-39.47
-45.56
-52.1
-59.6
-68.35
-78.19
-88.31
-97.31
-103.36
-104.66
-99.85
-88.51
-71.25
-49.59
-25.63
-1.53
20.75
39.79
54.68
65.03
70.9
72.75
71.29
67.42
62.03
56.01
50.16
45.21
41.73
39.99
39.9
41.02
42.62
43.92
44.27
43.29
40.93
37.38
32.93
27.84
22.3
16.37
10.08
3.43
-3.57
-10.84
-18.21
-25.46
-32.37
-38.77
-44.63
-50.13
-55.64
-61.62
-68.48
-76.31
-84.69
-92.59
-98.45
-100.52
-97.29
-87.92
-72.69
-52.87
-30.52
-7.88
13.09
31.07
45.36
55.73
62.23
65.06
64.65
61.66
57.04
51.86
47.14
43.53
41.29
40.26
40.06
40.23
40.34
40.12
39.41
38.18
36.41
34.09
31.17
27.52
23.07
17.76
11.68
5.04
-1.9
-8.84
-15.55
-21.9
-27.95
-33.86
-39.92
-46.42
-53.63
-61.7
-70.5
-79.5
-87.68
-93.59
-95.65
-92.49
-83.43
-68.74
-49.67
-28.14
-6.3
13.96
31.29
44.96
54.75
60.78
63.35
62.94
60.16
55.81
50.78
45.94
42
39.34
38.01
37.78
38.14
38.61
38.73
38.19
36.87
34.77
31.99
28.54
24.42
19.59
14.04
7.87
1.31
-5.35
-11.85
-18
-23.73
-29.08
-34.16
-39.16
-44.34
-50.07
-56.72
-64.52
-73.3
-82.27
-90.02
-94.75
-94.75
-88.93
-77.1
-60.18
-39.87
-18.25
2.66
21.24
36.4
47.57
54.68
58
58.14
55.87
52.07
47.61
43.25
39.54
36.85
35.33
34.89
35.31
36.19
37.08
37.49
37.05
35.57
33.05
29.67
25.63
21.14
16.25
10.95
5.23
-0.84
-7.13
-13.48
-19.77
-25.99
-32.19
-38.44
-44.77
-51.2
-57.86
-64.95
-72.69
-81
-89.24
-96.08
-99.63
-98.02
-89.97
-75.29
-55.05
-31.26
-6.32
17.58
38.75
56.08
68.9
76.85
79.9
78.42
73.29
65.81
57.48
49.71
43.5
39.28
36.92
35.9
35.57
35.31
34.74
33.67
32.07
29.94
27.24
23.91
19.88
15.11
9.66
3.67
-2.7
-9.24
-15.71
-21.92
-27.78
-33.33
-38.75
-44.37
-50.52
-57.47
-65.31
-73.75
-82.07
-89.05
-93.11
-92.67
-86.57
-74.53
-57.29
-36.5
-14.29
7.21
26.3
41.9
53.42
60.71
63.92
63.49
60.15
54.89
48.83
43.04
38.32
35
33.02
32.01
31.52
31.14
30.64
29.94
28.98
27.68
25.82
23.13
19.34
14.4
8.44
1.81
-5.09
-11.89
-18.36
-24.43
-30.13
-35.65
-41.29
-47.44
-54.47
-62.54
-71.27
-79.7
-86.28
-89.26
-87.13
-79.13
-65.46
-47.25
-26.3
-4.7
15.56
32.84
46.05
54.64
58.62
58.47
55.13
49.74
43.56
37.71
32.99
29.76
27.94
27.18
26.99
26.98
26.84
26.41
25.53
23.95
21.37
17.57
12.54
6.54
0.1
-6.26
-12.18
-17.63
-22.98
-28.82
-35.73
-44.1
-53.82
-64.18
-73.84
-81
-83.81
-80.84
-71.57
-56.62
-37.65
-16.91
3.32
21.25
35.72
46.26
52.77
55.41
54.52
50.68
44.77
37.91
31.24
25.74
21.94
19.9
19.23
19.35
19.65
19.63
18.97
17.48
15.08
11.8
7.7
2.92
-2.35
-7.97
-13.95
-20.45
-27.81
-36.36
-46.09
-56.4
-65.99
-73.1
-75.92
-73.15
-64.38
-50.24
-32.22
-12.3
7.54
25.54
40.43
51.39
57.99
60.21
58.4
53.28
45.92
37.61
29.71
23.31
19.02
16.81
16.11
16.06
15.82
14.85
12.95
10.26
6.99
3.28
-0.84
-5.52
-10.98
-17.43
-25.06
-33.93
-43.81
-54.11
-63.7
-71.08
-74.62
-73.05
-65.89
-53.55
-37.32
-18.95
-0.3
17.01
31.71
42.92
50.06
52.88
51.57
46.77
39.57
31.36
23.54
17.22
12.97
10.76
10.04
10.01
9.9
9.23
7.86
5.91
3.57
0.86
-2.39
-6.54
-11.98
-19.03
-27.74
-37.83
-48.68
-59.26
-68.19
-73.99
-75.28
-71.21
-61.69
-47.43
-29.84
-10.68
8.32
25.6
39.91
50.33
56.29
57.66
54.92
49.08
41.54
33.84
27.23
22.45
19.61
18.24
17.64
17.04
15.88
13.94
11.32
8.31
5.1
1.71
-2.17
-7.06
-13.54
-21.93
-32.14
-43.47
-54.65
-63.93
-69.55
-70.02
-64.62
-53.54
-37.86
-19.28
0.26
18.97
35.35
48.31
57.11
61.4
61.26
57.32
50.67
42.78
35.11
28.8
24.42
21.85
20.5
19.56
18.33
16.48
14.02
11.17
8.12
4.83
1.03
-3.73
-9.89
-17.75
-27.27
-38.02
-49.09
-59.02
-66.02
-68.34
-64.74
-54.97
-39.92
-21.37
-1.52
17.66
34.73
48.78
59.25
65.79
68.11
66.27
60.86
53.02
44.33
36.33
30.12
26.07
23.82
22.54
21.3
19.42
16.62
13.03
8.94
4.6
0.02
-5.02
-10.92
-18.08
-26.81
-37.12
-48.59
-60.24
-70.56
-77.69
-79.77
-75.53
-64.63
-47.83
-26.86
-3.96
18.64
39.08
56.05
68.77
76.82
80.12
78.9
73.85
66.05
56.98
48.21
41.08
36.38
34.11
33.61
33.75
33.35
31.57
28.06
22.97
16.75
9.86
2.57
-5.12
-13.35
-22.38
-32.43
-43.61
-55.79
-68.38
-80.23
-89.61
-94.46
-92.96
-84.15
-68.33
-47.02
-22.62
2.34
25.76
46.27
63.14
76
84.59
88.73
88.53
84.59
78.1
70.63
63.71
58.4
55.09
53.44
52.78
52.34
51.58
50.2
48.12
45.31
41.67
37.05
31.29
24.36
16.34
7.49
-1.82
-11.17
-20.2
-28.65
-36.43
-43.65
-50.6
-57.79
-65.83
-75.29
-86.38
-98.69
-110.91
-120.95
-126.36
-124.98
-115.64
-98.56
-75.29
-48.27
-20.15
6.84
31.14
51.9
68.73
81.49
90.19
95.04
96.48
95.26
92.33
88.63
84.92
81.67
78.96
76.69
74.61
72.55
70.42
68.19
65.85
63.27
60.21
56.36
51.48
45.5
38.56
31.02
23.32
15.9
9.04
2.86
-2.79
-8.19
-13.72
-19.71
-26.31
-33.42
-40.72
-47.82
-54.4
-60.34
-65.82
-71.24
-77.15
-84.13
-92.58
-102.54
-113.47
-124.08
-132.43
-136.26
-133.63
-123.52
-106.19
-83.19
-56.83
-29.59
-3.5
20.04
40.22
56.56
68.75
76.67
80.53
80.97
79.07
76.06
73.04
70.71
69.3
68.67
68.53
68.55
68.46
68.09
67.35
66.16
64.41
61.95
58.59
54.16
48.62
42.13
35.06
27.87
20.97
14.53
8.44
2.38
-3.99
-10.87
-18.25
-25.85
-33.28
-40.17
-46.34
-51.82
-56.89
-61.96
-67.53
-74.06
-81.83
-90.78
-100.27
-109.06
-115.35
-117.24
-113.24
-102.79
-86.45
-65.79
-42.89
-19.78
1.98
21.4
37.92
51.2
60.97
67.12
69.81
69.61
67.44
64.41
61.53
59.42
58.29
57.94
58.04
58.2
58.17
57.83
57.08
55.84
53.99
51.44
48.11
44.02
39.24
33.93
28.29
22.53
16.85
11.4
6.22
1.2
-3.91
-9.32
-15.19
-21.43
-27.74
-33.75
-39.17
-43.94
-48.28
-52.57
-57.3
-62.88
-69.57
-77.39
-86.02
-94.68
-102.16
-106.9
-107.36
-102.44
-91.81
-76.07
-56.59
-35.17
-13.64
6.46
23.99
38.23
48.82
55.67
58.99
59.24
57.16
53.7
49.84
46.49
44.19
43.14
43.18
43.91
44.91
45.86
46.59
46.99
46.93
46.23
44.68
42.12
38.55
34.11
29.06
23.73
18.37
13.19
8.26
3.57
-1
-5.69
-10.7
-16.15
-22
-28.06
-34.04
-39.73
-45.01
-50.03
-55.11
-60.66
-67.08
-74.54
-82.86
